Shimmer_6815_Timestamp_Unix_CAL,Shimmer_6815_PPG_A13_CAL,Unnamed: 2,inhale,inhale_id,epoch_sec
1768792263621.5515,24.908424908424905,,0,-1,1768792263.6215515
1768792263629.364,117.94871794871794,,0,-1,1768792263.629364
1768792263637.1765,235.16483516483515,,0,-1,1768792263.6371765
1768792263644.989,368.49816849816847,,0,-1,1768792263.644989
1768792263652.8015,499.6336996336996,,0,-1,1768792263.6528015
1768792263660.614,625.6410256410256,,0,-1,1768792263.660614
1768792263668.4265,743.5897435897435,,0,-1,1768792263.6684265
1768792263676.239,849.084249084249,,0,-1,1768792263.676239
1768792263684.0515,945.7875457875456,,0,-1,1768792263.6840515
1768792263691.864,1026.3736263736264,,0,-1,1768792263.691864
1768792263699.6765,1091.5750915750914,,0,-1,1768792263.6996765
1768792263707.489,1149.4505494505493,,0,-1,1768792263.707489
1768792263715.3015,1191.2087912087911,,0,-1,1768792263.7153015
1768792263723.114,1225.6410256410256,,0,-1,1768792263.723114
1768792263730.9265,1252.7472527472526,,0,-1,1768792263.7309265
1768792263738.739,1270.3296703296703,,0,-1,1768792263.738739
1768792263746.5515,1282.051282051282,,0,-1,1768792263.7465515
1768792263754.364,1292.3076923076922,,0,-1,1768792263.754364
1768792263762.1765,1295.2380952380952,,0,-1,1768792263.7621765
1768792263769.989,1299.6336996336995,,0,-1,1768792263.769989
1768792263777.8015,1300.3663003663005,,0,-1,1768792263.7778015
1768792263785.614,1296.7032967032967,,0,-1,1768792263.785614
1768792263793.4265,1294.5054945054944,,0,-1,1768792263.7934265
1768792263801.239,1287.179487179487,,0,-1,1768792263.801239
1768792263809.0515,1281.3186813186812,,0,-1,1768792263.8090515
1768792263816.864,1271.062271062271,,0,-1,1768792263.816864
1768792263824.6765,1257.142857142857,,0,-1,1768792263.8246765
1768792263832.489,1243.2234432234432,,0,-1,1768792263.832489
1768792263840.3015,1231.5018315018317,,0,-1,1768792263.8403015
1768792263848.114,1221.9780219780218,,0,-1,1768792263.848114
1768792263855.9265,1221.9780219780218,,0,-1,1768792263.8559265
1768792263863.739,1220.5128205128203,,0,-1,1768792263.863739
1768792263871.5515,1227.106227106227,,0,-1,1768792263.8715515
1768792263879.364,1233.6996336996335,,0,-1,1768792263.879364
1768792263887.1765,1238.8278388278388,,0,-1,1768792263.8871765
1768792263894.989,1248.3516483516482,,0,-1,1768792263.894989
1768792263902.8015,1253.479853479853,,0,-1,1768792263.9028015
1768792263910.614,1265.2014652014652,,0,-1,1768792263.910614
1768792263918.4265,1278.3882783882782,,0,-1,1768792263.9184265
1768792263926.239,1290.8424908424909,,0,-1,1768792263.926239
1768792263934.0515,1305.4945054945051,,0,-1,1768792263.9340515
1768792263941.864,1325.2747252747251,,0,-1,1768792263.941864
1768792263949.6765,1342.857142857143,,0,-1,1768792263.9496765
1768792263957.489,1355.311355311355,,0,-1,1768792263.957489
1768792263965.3015,1372.161172161172,,0,-1,1768792263.9653015
1768792263973.114,1388.278388278388,,0,-1,1768792263.973114
1768792263980.9265,1398.5347985347985,,0,-1,1768792263.9809265
1768792263988.739,1407.3260073260071,,0,-1,1768792263.988739
1768792263996.5515,1411.7216117216117,,0,-1,1768792263.9965515
1768792264004.364,1409.5238095238094,,0,-1,1768792264.004364
1768792264012.1765,1409.5238095238094,,0,-1,1768792264.0121765
1768792264019.989,1410.989010989011,,0,-1,1768792264.019989
1768792264027.8015,1410.2564102564102,,0,-1,1768792264.0278015
1768792264035.614,1411.7216117216117,,0,-1,1768792264.035614
1768792264043.4265,1410.989010989011,,0,-1,1768792264.0434265
1768792264051.239,1405.8608058608058,,0,-1,1768792264.051239
1768792264059.0515,1406.5934065934066,,0,-1,1768792264.0590515
1768792264066.864,1409.5238095238094,,0,-1,1768792264.066864
1768792264074.6765,1410.989010989011,,0,-1,1768792264.0746765
1768792264082.489,1411.7216117216117,,0,-1,1768792264.082489
1768792264090.3015,1406.5934065934066,,0,-1,1768792264.0903015
1768792264098.114,1400.7326007326003,,0,-1,1768792264.098114
1768792264105.9265,1391.2087912087911,,0,-1,1768792264.1059265
1768792264113.739,1381.6849816849815,,0,-1,1768792264.113739
1768792264121.5515,1365.5677655677655,,0,-1,1768792264.1215515
1768792264129.364,1351.6483516483515,,0,-1,1768792264.129364
1768792264137.1765,1339.92673992674,,0,-1,1768792264.1371765
1768792264144.989,1331.8681318681315,,0,-1,1768792264.144989
1768792264152.8015,1324.5421245421244,,0,-1,1768792264.1528015
1768792264160.614,1323.076923076923,,0,-1,1768792264.160614
1768792264168.4265,1321.6117216117216,,0,-1,1768792264.1684265
1768792264176.239,1318.6813186813183,,0,-1,1768792264.176239
1768792264184.0515,1312.8205128205127,,0,-1,1768792264.1840515
1768792264191.864,1307.6923076923076,,0,-1,1768792264.191864
1768792264199.6765,1305.4945054945051,,0,-1,1768792264.1996765
1768792264207.489,1300.3663003663005,,0,-1,1768792264.207489
1768792264215.3015,1294.5054945054944,,0,-1,1768792264.2153015
1768792264223.114,1290.10989010989,,0,-1,1768792264.223114
1768792264230.9265,1290.8424908424909,,0,-1,1768792264.2309265
1768792264238.739,1294.5054945054944,,0,-1,1768792264.238739
1768792264246.5515,1301.098901098901,,0,-1,1768792264.2465515
1768792264254.364,1309.89010989011,,0,-1,1768792264.254364
1768792264262.1765,1317.9487179487178,,0,-1,1768792264.2621765
1768792264269.989,1321.6117216117216,,0,-1,1768792264.269989
1768792264277.8015,1323.076923076923,,0,-1,1768792264.2778015
1768792264285.614,1321.6117216117216,,0,-1,1768792264.285614
1768792264293.4265,1322.3443223443223,,0,-1,1768792264.2934265
1768792264301.239,1324.5421245421244,,0,-1,1768792264.301239
1768792264309.0515,1322.3443223443223,,0,-1,1768792264.3090515
1768792264316.864,1317.9487179487178,,0,-1,1768792264.316864
1768792264324.6765,1313.5531135531137,,0,-1,1768792264.3246765
1768792264332.489,1306.9597069597069,,0,-1,1768792264.332489
1768792264340.3015,1296.7032967032967,,0,-1,1768792264.3403015
1768792264348.114,1282.051282051282,,0,-1,1768792264.348114
1768792264355.9265,1264.4688644688645,,0,-1,1768792264.3559265
1768792264363.739,1247.6190476190477,,0,-1,1768792264.363739
1768792264371.5515,1232.967032967033,,0,-1,1768792264.3715515
1768792264379.364,1220.5128205128203,,0,-1,1768792264.379364
1768792264387.1765,1205.8608058608058,,0,-1,1768792264.3871765
1768792264394.989,1190.4761904761904,,0,-1,1768792264.394989
1768792264402.8015,1174.3589743589744,,0,-1,1768792264.4028015
1768792264410.614,1151.6483516483515,,0,-1,1768792264.410614
1768792264418.4265,1123.8095238095236,,0,-1,1768792264.4184265
1768792264426.239,1087.179487179487,,0,-1,1768792264.426239
1768792264434.0515,1038.095238095238,,0,-1,1768792264.4340515
1768792264441.864,980.2197802197802,,0,-1,1768792264.441864
1768792264449.6765,920.14652014652,,0,-1,1768792264.4496765
1768792264457.489,868.8644688644688,,0,-1,1768792264.457489
1768792264465.3015,833.6996336996336,,0,-1,1768792264.4653015
1768792264473.114,814.6520146520146,,0,-1,1768792264.473114
1768792264480.9265,815.3846153846154,,0,-1,1768792264.4809265
1768792264488.739,827.106227106227,,0,-1,1768792264.488739
1768792264496.5515,843.9560439560439,,0,-1,1768792264.4965515
1768792264504.364,858.6080586080585,,0,-1,1768792264.504364
1768792264512.1765,865.9340659340659,,0,-1,1768792264.5121765
1768792264519.989,867.3992673992674,,0,-1,1768792264.519989
1768792264527.8015,863.003663003663,,0,-1,1768792264.5278015
1768792264535.614,857.1428571428571,,0,-1,1768792264.535614
1768792264543.4265,853.4798534798534,,0,-1,1768792264.5434265
1768792264551.239,854.2124542124542,,0,-1,1768792264.551239
1768792264559.0515,860.07326007326,,0,-1,1768792264.5590515
1768792264566.864,865.9340659340659,,0,-1,1768792264.566864
1768792264574.6765,872.5274725274725,,0,-1,1768792264.5746765
1768792264582.489,876.9230769230769,,0,-1,1768792264.582489
1768792264590.3015,876.1904761904761,,0,-1,1768792264.5903015
1768792264598.114,875.4578754578754,,0,-1,1768792264.598114
1768792264605.9265,876.1904761904761,,0,-1,1768792264.6059265
1768792264613.739,878.3882783882783,,0,-1,1768792264.613739
1768792264621.5515,883.5164835164835,,0,-1,1768792264.6215515
1768792264629.364,890.8424908424907,,0,-1,1768792264.629364
1768792264637.1765,902.5641025641024,,0,-1,1768792264.6371765
1768792264644.989,917.2161172161173,,0,-1,1768792264.644989
1768792264652.8015,931.868131868132,,0,-1,1768792264.6528015
1768792264660.614,942.124542124542,,0,-1,1768792264.660614
1768792264668.4265,952.3809523809524,,0,-1,1768792264.6684265
1768792264676.239,962.6373626373626,,0,-1,1768792264.676239
1768792264684.0515,972.161172161172,,0,-1,1768792264.6840515
1768792264691.864,982.4175824175824,,0,-1,1768792264.691864
1768792264699.6765,996.3369963369964,,0,-1,1768792264.6996765
1768792264707.489,1009.5238095238094,,0,-1,1768792264.707489
1768792264715.3015,1021.2454212454212,,0,-1,1768792264.7153015
1768792264723.114,1036.6300366300366,,0,-1,1768792264.723114
1768792264730.9265,1052.014652014652,,0,-1,1768792264.7309265
1768792264738.739,1070.3296703296703,,0,-1,1768792264.738739
1768792264746.5515,1093.040293040293,,0,-1,1768792264.7465515
1768792264754.364,1117.2161172161173,,0,-1,1768792264.754364
1768792264762.1765,1145.054945054945,,0,-1,1768792264.7621765
1768792264769.989,1176.5567765567764,,0,-1,1768792264.769989
1768792264777.8015,1208.7912087912086,,0,-1,1768792264.7778015
1768792264785.614,1241.7582417582416,,0,-1,1768792264.785614
1768792264793.4265,1275.4578754578754,,0,-1,1768792264.7934265
1768792264801.239,1313.5531135531137,,0,-1,1768792264.801239
1768792264809.0515,1358.241758241758,,0,-1,1768792264.8090515
1768792264816.864,1407.3260073260071,,0,-1,1768792264.816864
1768792264824.6765,1463.003663003663,,0,-1,1768792264.8246765
1768792264832.489,1532.6007326007325,,0,-1,1768792264.832489
1768792264840.3015,1611.7216117216117,,0,-1,1768792264.8403015
1768792264848.114,1676.190476190476,,0,-1,1768792264.848114
1768792264855.9265,1710.6227106227104,,0,-1,1768792264.8559265
1768792264863.739,1715.018315018315,,0,-1,1768792264.863739
1768792264871.5515,1695.2380952380952,,0,-1,1768792264.8715515
1768792264879.364,1658.6080586080584,,0,-1,1768792264.879364
1768792264887.1765,1608.058608058608,,0,-1,1768792264.8871765
1768792264894.989,1547.2527472527472,,0,-1,1768792264.894989
1768792264902.8015,1479.8534798534797,,0,-1,1768792264.9028015
1768792264910.614,1416.8498168498168,,0,-1,1768792264.910614
1768792264918.4265,1356.7765567765566,,0,-1,1768792264.9184265
1768792264926.239,1302.5641025641023,,0,-1,1768792264.926239
1768792264934.0515,1254.212454212454,,0,-1,1768792264.9340515
1768792264941.864,1216.117216117216,,0,-1,1768792264.941864
1768792264949.6765,1189.0109890109889,,0,-1,1768792264.9496765
1768792264957.489,1175.0915750915751,,0,-1,1768792264.957489
1768792264965.3015,1169.230769230769,,0,-1,1768792264.9653015
1768792264973.114,1169.9633699633698,,0,-1,1768792264.973114
1768792264980.9265,1175.8241758241757,,0,-1,1768792264.9809265
1768792264988.739,1186.080586080586,,0,-1,1768792264.988739
1768792264996.5515,1194.1391941391942,,0,-1,1768792264.9965515
1768792265004.364,1202.197802197802,,0,-1,1768792265.004364
1768792265012.1765,1212.4542124542124,,0,-1,1768792265.0121765
1768792265019.989,1227.106227106227,,0,-1,1768792265.019989
1768792265027.8015,1243.956043956044,,0,-1,1768792265.0278015
1768792265035.614,1262.2710622710622,,0,-1,1768792265.035614
1768792265043.4265,1282.7838827838827,,0,-1,1768792265.0434265
1768792265051.239,1305.4945054945051,,0,-1,1768792265.051239
1768792265059.0515,1324.5421245421244,,0,-1,1768792265.0590515
1768792265066.864,1342.857142857143,,0,-1,1768792265.066864
1768792265074.6765,1360.4395604395604,,0,-1,1768792265.0746765
1768792265082.489,1372.8937728937728,,0,-1,1768792265.082489
1768792265090.3015,1383.150183150183,,0,-1,1768792265.0903015
1768792265098.114,1391.941391941392,,0,-1,1768792265.098114
1768792265105.9265,1400.0,,0,-1,1768792265.1059265
1768792265113.739,1403.6630036630036,,0,-1,1768792265.113739
1768792265121.5515,1408.058608058608,,0,-1,1768792265.1215515
1768792265129.364,1410.989010989011,,0,-1,1768792265.129364
1768792265137.1765,1406.5934065934066,,0,-1,1768792265.1371765
1768792265144.989,1402.9304029304028,,0,-1,1768792265.144989
1768792265152.8015,1400.0,,0,-1,1768792265.1528015
1768792265160.614,1395.6043956043954,,0,-1,1768792265.160614
1768792265168.4265,1390.4761904761904,,0,-1,1768792265.1684265
1768792265176.239,1390.4761904761904,,0,-1,1768792265.176239
1768792265184.0515,1388.278388278388,,0,-1,1768792265.1840515
1768792265191.864,1391.2087912087911,,0,-1,1768792265.191864
1768792265199.6765,1392.6739926739926,,0,-1,1768792265.1996765
1768792265207.489,1397.8021978021975,,0,-1,1768792265.207489
1768792265215.3015,1401.4652014652013,,0,-1,1768792265.2153015
1768792265223.114,1410.2564102564102,,0,-1,1768792265.223114
1768792265230.9265,1411.7216117216117,,0,-1,1768792265.2309265
1768792265238.739,1416.117216117216,,0,-1,1768792265.238739
1768792265246.5515,1419.047619047619,,0,-1,1768792265.2465515
1768792265254.364,1418.3150183150185,,0,-1,1768792265.254364
1768792265262.1765,1420.5128205128203,,0,-1,1768792265.2621765
1768792265269.989,1416.8498168498168,,0,-1,1768792265.269989
1768792265277.8015,1416.8498168498168,,0,-1,1768792265.2778015
1768792265285.614,1410.989010989011,,0,-1,1768792265.285614
1768792265293.4265,1410.2564102564102,,0,-1,1768792265.2934265
1768792265301.239,1419.047619047619,,0,-1,1768792265.301239
1768792265309.0515,1429.3040293040292,,0,-1,1768792265.3090515
1768792265316.864,1442.4908424908424,,0,-1,1768792265.316864
1768792265324.6765,1456.4102564102564,,0,-1,1768792265.3246765
1768792265332.489,1470.3296703296703,,0,-1,1768792265.332489
1768792265340.3015,1483.5164835164835,,0,-1,1768792265.3403015
1768792265348.114,1495.970695970696,,0,-1,1768792265.348114
1768792265355.9265,1504.0293040293038,,0,-1,1768792265.3559265
1768792265363.739,1513.5531135531137,,0,-1,1768792265.363739
1768792265371.5515,1518.6813186813183,,0,-1,1768792265.3715515
1768792265379.364,1518.6813186813183,,0,-1,1768792265.379364
1768792265387.1765,1518.6813186813183,,0,-1,1768792265.3871765
1768792265394.989,1519.4139194139193,,0,-1,1768792265.394989
1768792265402.8015,1519.4139194139193,,0,-1,1768792265.4028015
1768792265410.614,1511.3553113553112,,0,-1,1768792265.410614
1768792265418.4265,1506.227106227106,,0,-1,1768792265.4184265
1768792265426.239,1501.098901098901,,0,-1,1768792265.426239
1768792265434.0515,1495.2380952380952,,0,-1,1768792265.4340515
1768792265441.864,1490.10989010989,,0,-1,1768792265.441864
1768792265449.6765,1487.9120879120878,,0,-1,1768792265.4496765
1768792265457.489,1487.179487179487,,0,-1,1768792265.457489
1768792265465.3015,1489.3772893772891,,0,-1,1768792265.4653015
1768792265473.114,1493.040293040293,,0,-1,1768792265.473114
1768792265480.9265,1491.5750915750914,,0,-1,1768792265.4809265
1768792265488.739,1486.4468864468863,,0,-1,1768792265.488739
1768792265496.5515,1480.5860805860805,,0,-1,1768792265.4965515
1768792265504.364,1479.120879120879,,0,-1,1768792265.504364
1768792265512.1765,1476.923076923077,,0,-1,1768792265.5121765
1768792265519.989,1473.260073260073,,0,-1,1768792265.519989
1768792265527.8015,1475.4578754578754,,0,-1,1768792265.5278015
1768792265535.614,1474.7252747252746,,0,-1,1768792265.535614
1768792265543.4265,1476.923076923077,,0,-1,1768792265.5434265
1768792265551.239,1474.7252747252746,,0,-1,1768792265.551239
1768792265559.0515,1471.062271062271,,0,-1,1768792265.5590515
1768792265566.864,1468.131868131868,,0,-1,1768792265.566864
1768792265574.6765,1456.4102564102564,,0,-1,1768792265.5746765
1768792265582.489,1445.4212454212454,,0,-1,1768792265.582489
1768792265590.3015,1427.106227106227,,0,-1,1768792265.5903015
1768792265598.114,1416.117216117216,,0,-1,1768792265.598114
1768792265605.9265,1400.7326007326003,,0,-1,1768792265.6059265
1768792265613.739,1389.7435897435896,,0,-1,1768792265.613739
1768792265621.5515,1374.3589743589744,,0,-1,1768792265.6215515
1768792265629.364,1364.102564102564,,0,-1,1768792265.629364
1768792265637.1765,1347.985347985348,,0,-1,1768792265.6371765
1768792265644.989,1329.6703296703297,,0,-1,1768792265.644989
1768792265652.8015,1312.8205128205127,,0,-1,1768792265.6528015
1768792265660.614,1287.179487179487,,0,-1,1768792265.660614
1768792265668.4265,1265.2014652014652,,0,-1,1768792265.6684265
1768792265676.239,1236.6300366300366,,0,-1,1768792265.676239
1768792265684.0515,1208.7912087912086,,0,-1,1768792265.6840515
1768792265691.864,1164.102564102564,,0,-1,1768792265.691864
1768792265699.6765,1118.6813186813183,,0,-1,1768792265.6996765
1768792265707.489,1071.062271062271,,0,-1,1768792265.707489
1768792265715.3015,1030.03663003663,,0,-1,1768792265.7153015
1768792265723.114,1000.0,,0,-1,1768792265.723114
1768792265730.9265,981.6849816849816,,0,-1,1768792265.7309265
1768792265738.739,979.4871794871794,,0,-1,1768792265.738739
1768792265746.5515,984.6153846153844,,0,-1,1768792265.7465515
1768792265754.364,994.139194139194,,0,-1,1768792265.754364
1768792265762.1765,1008.058608058608,,0,-1,1768792265.7621765
1768792265769.989,1022.7106227106226,,0,-1,1768792265.769989
1768792265777.8015,1041.7582417582416,,0,-1,1768792265.7778015
1768792265785.614,1060.805860805861,,0,-1,1768792265.785614
1768792265793.4265,1082.051282051282,,0,-1,1768792265.7934265
1768792265801.239,1101.098901098901,,0,-1,1768792265.801239
1768792265809.0515,1107.6923076923076,,0,-1,1768792265.8090515
1768792265816.864,1110.6227106227109,,0,-1,1768792265.816864
1768792265824.6765,1115.018315018315,,0,-1,1768792265.8246765
1768792265832.489,1120.8791208791208,,0,-1,1768792265.832489
1768792265840.3015,1134.7985347985348,,0,-1,1768792265.8403015
1768792265848.114,1152.3809523809523,,0,-1,1768792265.848114
1768792265855.9265,1177.2893772893772,,0,-1,1768792265.8559265
1768792265863.739,1196.3369963369962,,0,-1,1768792265.863739
1768792265871.5515,1215.3846153846152,,0,-1,1768792265.8715515
1768792265879.364,1226.3736263736264,,0,-1,1768792265.879364
1768792265887.1765,1235.164835164835,,0,-1,1768792265.8871765
1768792265894.989,1240.29304029304,,0,-1,1768792265.894989
1768792265902.8015,1239.5604395604396,,0,-1,1768792265.9028015
1768792265910.614,1242.4908424908424,,0,-1,1768792265.910614
1768792265918.4265,1238.8278388278388,,0,-1,1768792265.9184265
1768792265926.239,1238.095238095238,,0,-1,1768792265.926239
1768792265934.0515,1230.03663003663,,0,-1,1768792265.9340515
1768792265941.864,1217.5824175824175,,0,-1,1768792265.941864
1768792265949.6765,1206.5934065934066,,0,-1,1768792265.9496765
1768792265957.489,1194.1391941391942,,0,-1,1768792265.957489
1768792265965.3015,1188.278388278388,,0,-1,1768792265.9653015
1768792265973.114,1183.8827838827838,,0,-1,1768792265.973114
1768792265980.9265,1180.2197802197802,,0,-1,1768792265.9809265
1768792265988.739,1187.5457875457876,,0,-1,1768792265.988739
1768792265996.5515,1194.1391941391942,,0,-1,1768792265.9965515
1768792266004.364,1202.197802197802,,0,-1,1768792266.004364
1768792266012.1765,1217.5824175824175,,0,-1,1768792266.0121765
1768792266019.989,1229.3040293040292,,0,-1,1768792266.019989
1768792266027.8015,1244.688644688645,,0,-1,1768792266.0278015
1768792266035.614,1260.07326007326,,0,-1,1768792266.035614
1768792266043.4265,1275.4578754578754,,0,-1,1768792266.0434265
1768792266051.239,1293.040293040293,,0,-1,1768792266.051239
1768792266059.0515,1305.4945054945051,,0,-1,1768792266.0590515
1768792266066.864,1312.8205128205127,,0,-1,1768792266.066864
1768792266074.6765,1319.4139194139193,,0,-1,1768792266.0746765
1768792266082.489,1323.8095238095236,,0,-1,1768792266.082489
1768792266090.3015,1325.2747252747251,,0,-1,1768792266.0903015
1768792266098.114,1322.3443223443223,,0,-1,1768792266.098114
1768792266105.9265,1320.14652014652,,0,-1,1768792266.1059265
1768792266113.739,1320.8791208791208,,0,-1,1768792266.113739
1768792266121.5515,1323.8095238095236,,0,-1,1768792266.1215515
1768792266129.364,1323.8095238095236,,0,-1,1768792266.129364
1768792266137.1765,1321.6117216117216,,0,-1,1768792266.1371765
1768792266144.989,1324.5421245421244,,0,-1,1768792266.144989
1768792266152.8015,1330.4029304029302,,0,-1,1768792266.1528015
1768792266160.614,1335.5311355311355,,0,-1,1768792266.160614
1768792266168.4265,1345.054945054945,,0,-1,1768792266.1684265
1768792266176.239,1351.6483516483515,,0,-1,1768792266.176239
1768792266184.0515,1353.113553113553,,0,-1,1768792266.1840515
1768792266191.864,1353.8461538461538,,0,-1,1768792266.191864
1768792266199.6765,1352.3809523809523,,0,-1,1768792266.1996765
1768792266207.489,1342.124542124542,,0,-1,1768792266.207489
1768792266215.3015,1331.8681318681315,,0,-1,1768792266.2153015
1768792266223.114,1328.2051282051282,,0,-1,1768792266.223114
1768792266230.9265,1331.135531135531,,0,-1,1768792266.2309265
1768792266238.739,1333.3333333333333,,0,-1,1768792266.238739
1768792266246.5515,1336.9963369963368,,0,-1,1768792266.2465515
1768792266254.364,1342.857142857143,,0,-1,1768792266.254364
1768792266262.1765,1345.054945054945,,0,-1,1768792266.2621765
1768792266269.989,1344.3223443223442,,0,-1,1768792266.269989
1768792266277.8015,1341.3919413919414,,0,-1,1768792266.2778015
1768792266285.614,1341.3919413919414,,0,-1,1768792266.285614
1768792266293.4265,1344.3223443223442,,0,-1,1768792266.2934265
1768792266301.239,1347.2527472527472,,0,-1,1768792266.301239
1768792266309.0515,1348.7179487179487,,0,-1,1768792266.3090515
1768792266316.864,1349.4505494505493,,0,-1,1768792266.316864
1768792266324.6765,1350.18315018315,,0,-1,1768792266.3246765
1768792266332.489,1347.985347985348,,0,-1,1768792266.332489
1768792266340.3015,1345.7875457875457,,0,-1,1768792266.3403015
1768792266348.114,1347.2527472527472,,0,-1,1768792266.348114
1768792266355.9265,1352.3809523809523,,0,-1,1768792266.3559265
1768792266363.739,1356.7765567765566,,0,-1,1768792266.363739
1768792266371.5515,1356.043956043956,,0,-1,1768792266.3715515
1768792266379.364,1352.3809523809523,,0,-1,1768792266.379364
1768792266387.1765,1348.7179487179487,,0,-1,1768792266.3871765
1768792266394.989,1347.985347985348,,0,-1,1768792266.394989
1768792266402.8015,1350.18315018315,,0,-1,1768792266.4028015
1768792266410.614,1353.8461538461538,,0,-1,1768792266.410614
1768792266418.4265,1356.043956043956,,0,-1,1768792266.4184265
1768792266426.239,1356.7765567765566,,0,-1,1768792266.426239
1768792266434.0515,1358.974358974359,,0,-1,1768792266.4340515
1768792266441.864,1361.1721611721612,,0,-1,1768792266.441864
1768792266449.6765,1363.3699633699632,,0,-1,1768792266.4496765
1768792266457.489,1366.3003663003662,,0,-1,1768792266.457489
1768792266465.3015,1363.3699633699632,,0,-1,1768792266.4653015
1768792266473.114,1357.5091575091574,,0,-1,1768792266.473114
1768792266480.9265,1348.7179487179487,,0,-1,1768792266.4809265
1768792266488.739,1342.857142857143,,0,-1,1768792266.488739
1768792266496.5515,1335.5311355311355,,0,-1,1768792266.4965515
1768792266504.364,1329.6703296703297,,0,-1,1768792266.504364
1768792266512.1765,1323.076923076923,,0,-1,1768792266.5121765
1768792266519.989,1313.5531135531137,,0,-1,1768792266.519989
1768792266527.8015,1306.227106227106,,0,-1,1768792266.5278015
1768792266535.614,1302.5641025641023,,0,-1,1768792266.535614
1768792266543.4265,1301.098901098901,,0,-1,1768792266.5434265
1768792266551.239,1298.9010989010987,,0,-1,1768792266.551239
1768792266559.0515,1295.970695970696,,0,-1,1768792266.5590515
1768792266566.864,1291.5750915750914,,0,-1,1768792266.566864
1768792266574.6765,1285.7142857142856,,0,-1,1768792266.5746765
1768792266582.489,1282.051282051282,,0,-1,1768792266.582489
1768792266590.3015,1277.6556776556777,,0,-1,1768792266.5903015
1768792266598.114,1275.4578754578754,,0,-1,1768792266.598114
1768792266605.9265,1273.260073260073,,0,-1,1768792266.6059265
1768792266613.739,1273.992673992674,,0,-1,1768792266.613739
1768792266621.5515,1271.7948717948716,,0,-1,1768792266.6215515
1768792266629.364,1266.6666666666663,,0,-1,1768792266.629364
1768792266637.1765,1265.2014652014652,,0,-1,1768792266.6371765
1768792266644.989,1268.8644688644688,,0,-1,1768792266.644989
1768792266652.8015,1276.923076923077,,0,-1,1768792266.6528015
1768792266660.614,1284.2490842490845,,0,-1,1768792266.660614
1768792266668.4265,1290.10989010989,,0,-1,1768792266.6684265
1768792266676.239,1292.3076923076922,,0,-1,1768792266.676239
1768792266684.0515,1290.10989010989,,0,-1,1768792266.6840515
1768792266691.864,1284.9816849816848,,0,-1,1768792266.691864
1768792266699.6765,1276.923076923077,,0,-1,1768792266.6996765
1768792266707.489,1269.5970695970695,,0,-1,1768792266.707489
1768792266715.3015,1268.131868131868,,0,-1,1768792266.7153015
1768792266723.114,1268.131868131868,,0,-1,1768792266.723114
1768792266730.9265,1265.2014652014652,,0,-1,1768792266.7309265
1768792266738.739,1262.2710622710622,,0,-1,1768792266.738739
1768792266746.5515,1260.07326007326,,0,-1,1768792266.7465515
1768792266754.364,1260.805860805861,,0,-1,1768792266.754364
1768792266762.1765,1257.142857142857,,0,-1,1768792266.7621765
1768792266769.989,1255.6776556776556,,0,-1,1768792266.769989
1768792266777.8015,1257.875457875458,,0,-1,1768792266.7778015
1768792266785.614,1260.805860805861,,0,-1,1768792266.785614
1768792266793.4265,1263.7362637362637,,1,1,1768792266.7934265
1768792266801.239,1264.4688644688645,,1,1,1768792266.801239
1768792266809.0515,1261.5384615384614,,1,1,1768792266.8090515
1768792266816.864,1257.142857142857,,1,1,1768792266.816864
1768792266824.6765,1255.6776556776556,,1,1,1768792266.8246765
1768792266832.489,1257.142857142857,,1,1,1768792266.832489
1768792266840.3015,1258.6080586080586,,1,1,1768792266.8403015
1768792266848.114,1261.5384615384614,,1,1,1768792266.848114
1768792266855.9265,1263.7362637362637,,1,1,1768792266.8559265
1768792266863.739,1267.3992673992673,,1,1,1768792266.863739
1768792266871.5515,1275.4578754578754,,1,1,1768792266.8715515
1768792266879.364,1282.7838827838827,,1,1,1768792266.879364
1768792266887.1765,1290.8424908424909,,1,1,1768792266.8871765
1768792266894.989,1295.970695970696,,1,1,1768792266.894989
1768792266902.8015,1295.970695970696,,1,1,1768792266.9028015
1768792266910.614,1298.168498168498,,1,1,1768792266.910614
1768792266918.4265,1298.168498168498,,1,1,1768792266.9184265
1768792266926.239,1298.168498168498,,1,1,1768792266.926239
1768792266934.0515,1295.2380952380952,,1,1,1768792266.9340515
1768792266941.864,1293.7728937728937,,1,1,1768792266.941864
1768792266949.6765,1295.970695970696,,1,1,1768792266.9496765
1768792266957.489,1299.6336996336995,,1,1,1768792266.957489
1768792266965.3015,1304.7619047619046,,1,1,1768792266.9653015
1768792266973.114,1306.227106227106,,1,1,1768792266.973114
1768792266980.9265,1306.9597069597069,,1,1,1768792266.9809265
1768792266988.739,1305.4945054945051,,1,1,1768792266.988739
1768792266996.5515,1304.0293040293038,,1,1,1768792266.9965515
1768792267004.364,1295.2380952380952,,1,1,1768792267.004364
1768792267012.1765,1290.10989010989,,1,1,1768792267.0121765
1768792267019.989,1280.5860805860805,,1,1,1768792267.019989
1768792267027.8015,1276.923076923077,,1,1,1768792267.0278015
1768792267035.614,1279.8534798534797,,1,1,1768792267.035614
1768792267043.4265,1290.10989010989,,1,1,1768792267.0434265
1768792267051.239,1299.6336996336995,,1,1,1768792267.051239
1768792267059.0515,1306.9597069597069,,1,1,1768792267.0590515
1768792267066.864,1314.2857142857142,,1,1,1768792267.066864
1768792267074.6765,1323.076923076923,,1,1,1768792267.0746765
1768792267082.489,1331.8681318681315,,1,1,1768792267.082489
1768792267090.3015,1342.124542124542,,1,1,1768792267.0903015
1768792267098.114,1350.18315018315,,1,1,1768792267.098114
1768792267105.9265,1358.974358974359,,1,1,1768792267.1059265
1768792267113.739,1366.3003663003662,,1,1,1768792267.113739
1768792267121.5515,1372.8937728937728,,1,1,1768792267.1215515
1768792267129.364,1378.7545787545787,,1,1,1768792267.129364
1768792267137.1765,1383.150183150183,,1,1,1768792267.1371765
1768792267144.989,1383.150183150183,,1,1,1768792267.144989
1768792267152.8015,1386.8131868131868,,1,1,1768792267.1528015
1768792267160.614,1390.4761904761904,,1,1,1768792267.160614
1768792267168.4265,1389.7435897435896,,1,1,1768792267.1684265
1768792267176.239,1384.6153846153843,,1,1,1768792267.176239
1768792267184.0515,1380.2197802197802,,1,1,1768792267.1840515
1768792267191.864,1381.6849816849815,,1,1,1768792267.191864
1768792267199.6765,1386.080586080586,,1,1,1768792267.1996765
1768792267207.489,1388.278388278388,,1,1,1768792267.207489
1768792267215.3015,1389.7435897435896,,1,1,1768792267.2153015
1768792267223.114,1391.2087912087911,,1,1,1768792267.223114
1768792267230.9265,1390.4761904761904,,1,1,1768792267.2309265
1768792267238.739,1389.7435897435896,,1,1,1768792267.238739
1768792267246.5515,1393.4065934065934,,1,1,1768792267.2465515
1768792267254.364,1393.4065934065934,,1,1,1768792267.254364
1768792267262.1765,1394.139194139194,,1,1,1768792267.2621765
1768792267269.989,1396.3369963369962,,1,1,1768792267.269989
1768792267277.8015,1397.069597069597,,1,1,1768792267.2778015
1768792267285.614,1397.8021978021975,,1,1,1768792267.285614
1768792267293.4265,1396.3369963369962,,1,1,1768792267.2934265
1768792267301.239,1394.8717948717947,,1,1,1768792267.301239
1768792267309.0515,1392.6739926739926,,1,1,1768792267.3090515
1768792267316.864,1392.6739926739926,,1,1,1768792267.316864
1768792267324.6765,1392.6739926739926,,1,1,1768792267.3246765
1768792267332.489,1395.6043956043954,,1,1,1768792267.332489
1768792267340.3015,1398.5347985347985,,1,1,1768792267.3403015
1768792267348.114,1398.5347985347985,,1,1,1768792267.348114
1768792267355.9265,1400.0,,1,1,1768792267.3559265
1768792267363.739,1400.7326007326003,,1,1,1768792267.363739
1768792267371.5515,1404.3956043956043,,1,1,1768792267.3715515
1768792267379.364,1405.128205128205,,1,1,1768792267.379364
1768792267387.1765,1406.5934065934066,,1,1,1768792267.3871765
1768792267394.989,1402.197802197802,,1,1,1768792267.394989
1768792267402.8015,1397.069597069597,,1,1,1768792267.4028015
1768792267410.614,1395.6043956043954,,1,1,1768792267.410614
1768792267418.4265,1400.0,,1,1,1768792267.4184265
1768792267426.239,1400.7326007326003,,1,1,1768792267.426239
1768792267434.0515,1402.197802197802,,1,1,1768792267.4340515
1768792267441.864,1402.197802197802,,1,1,1768792267.441864
1768792267449.6765,1398.5347985347985,,1,1,1768792267.4496765
1768792267457.489,1395.6043956043954,,1,1,1768792267.457489
1768792267465.3015,1390.4761904761904,,1,1,1768792267.4653015
1768792267473.114,1389.7435897435896,,1,1,1768792267.473114
1768792267480.9265,1389.7435897435896,,1,1,1768792267.4809265
1768792267488.739,1391.2087912087911,,1,1,1768792267.488739
1768792267496.5515,1394.8717948717947,,1,1,1768792267.4965515
1768792267504.364,1402.9304029304028,,1,1,1768792267.504364
1768792267512.1765,1403.6630036630036,,1,1,1768792267.5121765
1768792267519.989,1400.0,,1,1,1768792267.519989
1768792267527.8015,1397.069597069597,,1,1,1768792267.5278015
1768792267535.614,1394.139194139194,,1,1,1768792267.535614
1768792267543.4265,1391.2087912087911,,1,1,1768792267.5434265
1768792267551.239,1392.6739926739926,,1,1,1768792267.551239
1768792267559.0515,1399.2673992673992,,1,1,1768792267.5590515
1768792267566.864,1400.0,,1,1,1768792267.566864
1768792267574.6765,1398.5347985347985,,1,1,1768792267.5746765
1768792267582.489,1397.8021978021975,,1,1,1768792267.582489
1768792267590.3015,1398.5347985347985,,1,1,1768792267.5903015
1768792267598.114,1402.197802197802,,1,1,1768792267.598114
1768792267605.9265,1398.5347985347985,,1,1,1768792267.6059265
1768792267613.739,1397.8021978021975,,1,1,1768792267.613739
1768792267621.5515,1394.8717948717947,,1,1,1768792267.6215515
1768792267629.364,1386.080586080586,,1,1,1768792267.629364
1768792267637.1765,1380.2197802197802,,1,1,1768792267.6371765
1768792267644.989,1369.9633699633698,,1,1,1768792267.644989
1768792267652.8015,1363.3699633699632,,1,1,1768792267.6528015
1768792267660.614,1360.4395604395604,,1,1,1768792267.660614
1768792267668.4265,1353.113553113553,,1,1,1768792267.6684265
1768792267676.239,1351.6483516483515,,1,1,1768792267.676239
1768792267684.0515,1350.18315018315,,1,1,1768792267.6840515
1768792267691.864,1346.5201465201465,,1,1,1768792267.691864
1768792267699.6765,1345.054945054945,,1,1,1768792267.6996765
1768792267707.489,1337.7289377289376,,1,1,1768792267.707489
1768792267715.3015,1323.8095238095236,,1,1,1768792267.7153015
1768792267723.114,1315.018315018315,,1,1,1768792267.723114
1768792267730.9265,1301.8315018315018,,1,1,1768792267.7309265
1768792267738.739,1297.4358974358977,,1,1,1768792267.738739
1768792267746.5515,1290.8424908424909,,1,1,1768792267.7465515
1768792267754.364,1293.7728937728937,,1,1,1768792267.754364
1768792267762.1765,1292.3076923076922,,1,1,1768792267.7621765
1768792267769.989,1295.970695970696,,1,1,1768792267.769989
1768792267777.8015,1295.2380952380952,,1,1,1768792267.7778015
1768792267785.614,1295.2380952380952,,1,1,1768792267.785614
1768792267793.4265,1295.970695970696,,1,1,1768792267.7934265
1768792267801.239,1296.7032967032967,,1,1,1768792267.801239
1768792267809.0515,1298.9010989010987,,1,1,1768792267.8090515
1768792267816.864,1298.168498168498,,1,1,1768792267.816864
1768792267824.6765,1300.3663003663005,,1,1,1768792267.8246765
1768792267832.489,1295.970695970696,,1,1,1768792267.832489
1768792267840.3015,1292.3076923076922,,1,1,1768792267.8403015
1768792267848.114,1294.5054945054944,,1,1,1768792267.848114
1768792267855.9265,1293.040293040293,,1,1,1768792267.8559265
1768792267863.739,1292.3076923076922,,1,1,1768792267.863739
1768792267871.5515,1291.5750915750914,,1,1,1768792267.8715515
1768792267879.364,1288.6446886446886,,1,1,1768792267.879364
1768792267887.1765,1291.5750915750914,,1,1,1768792267.8871765
1768792267894.989,1289.3772893772891,,1,1,1768792267.894989
1768792267902.8015,1291.5750915750914,,1,1,1768792267.9028015
1768792267910.614,1290.10989010989,,1,1,1768792267.910614
1768792267918.4265,1288.6446886446886,,1,1,1768792267.9184265
1768792267926.239,1284.2490842490845,,1,1,1768792267.926239
1768792267934.0515,1280.5860805860805,,1,1,1768792267.9340515
1768792267941.864,1276.190476190476,,1,1,1768792267.941864
1768792267949.6765,1279.120879120879,,1,1,1768792267.9496765
1768792267957.489,1277.6556776556777,,1,1,1768792267.957489
1768792267965.3015,1280.5860805860805,,1,1,1768792267.9653015
1768792267973.114,1278.3882783882782,,1,1,1768792267.973114
1768792267980.9265,1279.8534798534797,,1,1,1768792267.9809265
1768792267988.739,1276.190476190476,,1,1,1768792267.988739
1768792267996.5515,1269.5970695970695,,1,1,1768792267.9965515
1768792268004.364,1263.7362637362637,,1,1,1768792268.004364
1768792268012.1765,1265.9340659340658,,1,1,1768792268.0121765
1768792268019.989,1275.4578754578754,,1,1,1768792268.019989
1768792268027.8015,1284.2490842490845,,1,1,1768792268.0278015
1768792268035.614,1295.2380952380952,,1,1,1768792268.035614
1768792268043.4265,1300.3663003663005,,1,1,1768792268.0434265
1768792268051.239,1310.6227106227104,,1,1,1768792268.051239
1768792268059.0515,1316.4835164835165,,1,1,1768792268.0590515
1768792268066.864,1326.739926739927,,1,1,1768792268.066864
1768792268074.6765,1334.7985347985348,,1,1,1768792268.0746765
1768792268082.489,1349.4505494505493,,1,1,1768792268.082489
1768792268090.3015,1358.974358974359,,1,1,1768792268.0903015
1768792268098.114,1370.6959706959706,,1,1,1768792268.098114
1768792268105.9265,1376.5567765567764,,1,1,1768792268.1059265
1768792268113.739,1387.5457875457876,,1,1,1768792268.113739
1768792268121.5515,1400.0,,1,1,1768792268.1215515
1768792268129.364,1407.3260073260071,,1,1,1768792268.129364
1768792268137.1765,1412.4542124542124,,1,1,1768792268.1371765
1768792268144.989,1419.047619047619,,1,1,1768792268.144989
1768792268152.8015,1419.7802197802198,,1,1,1768792268.1528015
1768792268160.614,1420.5128205128203,,1,1,1768792268.160614
1768792268168.4265,1416.8498168498168,,1,1,1768792268.1684265
1768792268176.239,1411.7216117216117,,1,1,1768792268.176239
1768792268184.0515,1405.128205128205,,1,1,1768792268.1840515
1768792268191.864,1394.139194139194,,1,1,1768792268.191864
1768792268199.6765,1386.8131868131868,,1,1,1768792268.1996765
1768792268207.489,1379.4871794871794,,1,1,1768792268.207489
1768792268215.3015,1377.2893772893772,,1,1,1768792268.2153015
1768792268223.114,1378.021978021978,,1,1,1768792268.223114
1768792268230.9265,1379.4871794871794,,1,1,1768792268.2309265
1768792268238.739,1390.4761904761904,,1,1,1768792268.238739
1768792268246.5515,1397.8021978021975,,1,1,1768792268.2465515
1768792268254.364,1406.5934065934066,,1,1,1768792268.254364
1768792268262.1765,1406.5934065934066,,1,1,1768792268.2621765
1768792268269.989,1413.9194139194135,,1,1,1768792268.269989
1768792268277.8015,1420.5128205128203,,1,1,1768792268.2778015
1768792268285.614,1425.6410256410256,,1,1,1768792268.285614
1768792268293.4265,1430.03663003663,,1,1,1768792268.2934265
1768792268301.239,1426.3736263736262,,1,1,1768792268.301239
1768792268309.0515,1424.9084249084249,,1,1,1768792268.3090515
1768792268316.864,1419.7802197802198,,1,1,1768792268.316864
1768792268324.6765,1415.3846153846152,,1,1,1768792268.3246765
1768792268332.489,1413.1868131868132,,1,1,1768792268.332489
1768792268340.3015,1409.5238095238094,,1,1,1768792268.3403015
1768792268348.114,1410.2564102564102,,1,1,1768792268.348114
1768792268355.9265,1413.1868131868132,,1,1,1768792268.3559265
1768792268363.739,1416.117216117216,,1,1,1768792268.363739
1768792268371.5515,1416.8498168498168,,1,1,1768792268.3715515
1768792268379.364,1419.047619047619,,1,1,1768792268.379364
1768792268387.1765,1416.8498168498168,,1,1,1768792268.3871765
1768792268394.989,1410.989010989011,,1,1,1768792268.394989
1768792268402.8015,1406.5934065934066,,1,1,1768792268.4028015
1768792268410.614,1401.4652014652013,,1,1,1768792268.410614
1768792268418.4265,1393.4065934065934,,1,1,1768792268.4184265
1768792268426.239,1391.2087912087911,,1,1,1768792268.426239
1768792268434.0515,1389.0109890109889,,1,1,1768792268.4340515
1768792268441.864,1386.8131868131868,,1,1,1768792268.441864
1768792268449.6765,1391.2087912087911,,1,1,1768792268.4496765
1768792268457.489,1396.3369963369962,,1,1,1768792268.457489
1768792268465.3015,1400.0,,1,1,1768792268.4653015
1768792268473.114,1405.8608058608058,,1,1,1768792268.473114
1768792268480.9265,1406.5934065934066,,1,1,1768792268.4809265
1768792268488.739,1408.058608058608,,1,1,1768792268.488739
1768792268496.5515,1410.989010989011,,1,1,1768792268.4965515
1768792268504.364,1408.058608058608,,1,1,1768792268.504364
1768792268512.1765,1402.9304029304028,,1,1,1768792268.5121765
1768792268519.989,1400.0,,1,1,1768792268.519989
1768792268527.8015,1394.139194139194,,1,1,1768792268.5278015
1768792268535.614,1391.941391941392,,1,1,1768792268.535614
1768792268543.4265,1394.8717948717947,,1,1,1768792268.5434265
1768792268551.239,1391.2087912087911,,1,1,1768792268.551239
1768792268559.0515,1385.3479853479853,,1,1,1768792268.5590515
1768792268566.864,1377.2893772893772,,1,1,1768792268.566864
1768792268574.6765,1374.3589743589744,,1,1,1768792268.5746765
1768792268582.489,1370.6959706959706,,1,1,1768792268.582489
1768792268590.3015,1369.230769230769,,1,1,1768792268.5903015
1768792268598.114,1371.428571428571,,1,1,1768792268.598114
1768792268605.9265,1376.5567765567764,,1,1,1768792268.6059265
1768792268613.739,1378.021978021978,,1,1,1768792268.613739
1768792268621.5515,1382.4175824175825,,1,1,1768792268.6215515
1768792268629.364,1387.5457875457876,,1,1,1768792268.629364
1768792268637.1765,1387.5457875457876,,1,1,1768792268.6371765
1768792268644.989,1381.6849816849815,,1,1,1768792268.644989
1768792268652.8015,1375.091575091575,,1,1,1768792268.6528015
1768792268660.614,1364.8351648351647,,1,1,1768792268.660614
1768792268668.4265,1356.7765567765566,,1,1,1768792268.6684265
1768792268676.239,1350.9157509157508,,1,1,1768792268.676239
1768792268684.0515,1347.985347985348,,1,1,1768792268.6840515
1768792268691.864,1345.7875457875457,,1,1,1768792268.691864
1768792268699.6765,1345.7875457875457,,1,1,1768792268.6996765
1768792268707.489,1348.7179487179487,,1,1,1768792268.707489
1768792268715.3015,1350.9157509157508,,1,1,1768792268.7153015
1768792268723.114,1356.7765567765566,,1,1,1768792268.723114
1768792268730.9265,1364.8351648351647,,1,1,1768792268.7309265
1768792268738.739,1369.230769230769,,1,1,1768792268.738739
1768792268746.5515,1372.161172161172,,1,1,1768792268.7465515
1768792268754.364,1374.3589743589744,,1,1,1768792268.754364
1768792268762.1765,1378.7545787545787,,1,1,1768792268.7621765
1768792268769.989,1378.7545787545787,,1,1,1768792268.769989
1768792268777.8015,1375.091575091575,,1,1,1768792268.7778015
1768792268785.614,1374.3589743589744,,1,1,1768792268.785614
1768792268793.4265,1372.8937728937728,,1,1,1768792268.7934265
1768792268801.239,1372.161172161172,,1,1,1768792268.801239
1768792268809.0515,1368.4981684981683,,1,1,1768792268.8090515
1768792268816.864,1364.102564102564,,1,1,1768792268.816864
1768792268824.6765,1359.7069597069597,,1,1,1768792268.8246765
1768792268832.489,1355.311355311355,,1,1,1768792268.832489
1768792268840.3015,1355.311355311355,,1,1,1768792268.8403015
1768792268848.114,1356.043956043956,,1,1,1768792268.848114
1768792268855.9265,1356.043956043956,,1,1,1768792268.8559265
1768792268863.739,1354.5787545787546,,1,1,1768792268.863739
1768792268871.5515,1353.113553113553,,1,1,1768792268.8715515
1768792268879.364,1350.18315018315,,1,1,1768792268.879364
1768792268887.1765,1345.054945054945,,1,1,1768792268.8871765
1768792268894.989,1339.194139194139,,1,1,1768792268.894989
1768792268902.8015,1328.2051282051282,,1,1,1768792268.9028015
1768792268910.614,1317.216117216117,,1,1,1768792268.910614
1768792268918.4265,1307.6923076923076,,1,1,1768792268.9184265
1768792268926.239,1298.168498168498,,1,1,1768792268.926239
1768792268934.0515,1286.4468864468863,,1,1,1768792268.9340515
1768792268941.864,1279.120879120879,,1,1,1768792268.941864
1768792268949.6765,1279.120879120879,,1,1,1768792268.9496765
1768792268957.489,1287.9120879120878,,1,1,1768792268.957489
1768792268965.3015,1304.7619047619046,,1,1,1768792268.9653015
1768792268973.114,1326.739926739927,,1,1,1768792268.973114
1768792268980.9265,1350.18315018315,,1,1,1768792268.9809265
1768792268988.739,1374.3589743589744,,1,1,1768792268.988739
1768792268996.5515,1397.8021978021975,,1,1,1768792268.9965515
1768792269004.364,1421.9780219780218,,1,1,1768792269.004364
1768792269012.1765,1442.4908424908424,,1,1,1768792269.0121765
1768792269019.989,1463.003663003663,,1,1,1768792269.019989
1768792269027.8015,1482.7838827838827,,1,1,1768792269.0278015
1768792269035.614,1498.9010989010987,,1,1,1768792269.035614
1768792269043.4265,1508.4249084249084,,1,1,1768792269.0434265
1768792269051.239,1514.2857142857142,,1,1,1768792269.051239
1768792269059.0515,1519.4139194139193,,1,1,1768792269.0590515
1768792269066.864,1523.8095238095236,,1,1,1768792269.066864
1768792269074.6765,1524.5421245421244,,1,1,1768792269.0746765
1768792269082.489,1524.5421245421244,,1,1,1768792269.082489
1768792269090.3015,1524.5421245421244,,1,1,1768792269.0903015
1768792269098.114,1525.2747252747251,,1,1,1768792269.098114
1768792269105.9265,1523.8095238095236,,1,1,1768792269.1059265
1768792269113.739,1521.6117216117216,,1,1,1768792269.113739
1768792269121.5515,1519.4139194139193,,1,1,1768792269.1215515
1768792269129.364,1518.6813186813183,,1,1,1768792269.129364
1768792269137.1765,1519.4139194139193,,1,1,1768792269.1371765
1768792269144.989,1520.8791208791208,,1,1,1768792269.144989
1768792269152.8015,1515.7509157509155,,1,1,1768792269.1528015
1768792269160.614,1508.4249084249084,,1,1,1768792269.160614
1768792269168.4265,1501.098901098901,,1,1,1768792269.1684265
1768792269176.239,1494.5054945054944,,1,1,1768792269.176239
1768792269184.0515,1489.3772893772891,,1,1,1768792269.1840515
1768792269191.864,1486.4468864468863,,1,1,1768792269.191864
1768792269199.6765,1485.7142857142856,,1,1,1768792269.1996765
1768792269207.489,1482.7838827838827,,1,1,1768792269.207489
1768792269215.3015,1479.120879120879,,1,1,1768792269.2153015
1768792269223.114,1479.120879120879,,1,1,1768792269.223114
1768792269230.9265,1480.5860805860805,,1,1,1768792269.2309265
1768792269238.739,1481.3186813186812,,1,1,1768792269.238739
1768792269246.5515,1484.2490842490845,,1,1,1768792269.2465515
1768792269254.364,1487.179487179487,,1,1,1768792269.254364
1768792269262.1765,1489.3772893772891,,1,1,1768792269.2621765
1768792269269.989,1487.9120879120878,,1,1,1768792269.269989
1768792269277.8015,1482.7838827838827,,1,1,1768792269.2778015
1768792269285.614,1476.190476190476,,1,1,1768792269.285614
1768792269293.4265,1470.3296703296703,,1,1,1768792269.2934265
1768792269301.239,1467.3992673992673,,1,1,1768792269.301239
1768792269309.0515,1466.6666666666663,,1,1,1768792269.3090515
1768792269316.864,1466.6666666666663,,1,1,1768792269.316864
1768792269324.6765,1466.6666666666663,,1,1,1768792269.3246765
1768792269332.489,1464.4688644688645,,1,1,1768792269.332489
1768792269340.3015,1461.5384615384614,,1,1,1768792269.3403015
1768792269348.114,1455.6776556776556,,1,1,1768792269.348114
1768792269355.9265,1447.6190476190477,,1,1,1768792269.3559265
1768792269363.739,1443.2234432234432,,1,1,1768792269.363739
1768792269371.5515,1443.2234432234432,,1,1,1768792269.3715515
1768792269379.364,1446.153846153846,,1,1,1768792269.379364
1768792269387.1765,1445.4212454212454,,1,1,1768792269.3871765
1768792269394.989,1441.0256410256409,,1,1,1768792269.394989
1768792269402.8015,1444.688644688645,,1,1,1768792269.4028015
1768792269410.614,1444.688644688645,,1,1,1768792269.410614
1768792269418.4265,1442.4908424908424,,1,1,1768792269.4184265
1768792269426.239,1439.5604395604394,,1,1,1768792269.426239
1768792269434.0515,1432.9670329670328,,1,1,1768792269.4340515
1768792269441.864,1424.175824175824,,1,1,1768792269.441864
1768792269449.6765,1415.3846153846152,,1,1,1768792269.4496765
1768792269457.489,1408.7912087912086,,1,1,1768792269.457489
1768792269465.3015,1406.5934065934066,,1,1,1768792269.4653015
1768792269473.114,1404.3956043956043,,1,1,1768792269.473114
1768792269480.9265,1402.9304029304028,,1,1,1768792269.4809265
1768792269488.739,1402.9304029304028,,1,1,1768792269.488739
1768792269496.5515,1404.3956043956043,,1,1,1768792269.4965515
1768792269504.364,1411.7216117216117,,1,1,1768792269.504364
1768792269512.1765,1426.3736263736262,,1,1,1768792269.5121765
1768792269519.989,1443.2234432234432,,1,1,1768792269.519989
1768792269527.8015,1463.003663003663,,1,1,1768792269.5278015
1768792269535.614,1481.3186813186812,,1,1,1768792269.535614
1768792269543.4265,1493.7728937728937,,1,1,1768792269.5434265
1768792269551.239,1497.4358974358972,,1,1,1768792269.551239
1768792269559.0515,1494.5054945054944,,1,1,1768792269.5590515
1768792269566.864,1484.9816849816848,,1,1,1768792269.566864
1768792269574.6765,1476.190476190476,,1,1,1768792269.5746765
1768792269582.489,1472.5274725274724,,1,1,1768792269.582489
1768792269590.3015,1468.8644688644688,,1,1,1768792269.5903015
1768792269598.114,1460.805860805861,,1,1,1768792269.598114
1768792269605.9265,1446.8864468864467,,1,1,1768792269.6059265
1768792269613.739,1424.9084249084249,,1,1,1768792269.613739
1768792269621.5515,1401.4652014652013,,1,1,1768792269.6215515
1768792269629.364,1379.4871794871794,,1,1,1768792269.629364
1768792269637.1765,1356.043956043956,,1,1,1768792269.6371765
1768792269644.989,1332.6007326007325,,1,1,1768792269.644989
1768792269652.8015,1310.6227106227104,,1,1,1768792269.6528015
1768792269660.614,1292.3076923076922,,1,1,1768792269.660614
1768792269668.4265,1276.923076923077,,1,1,1768792269.6684265
1768792269676.239,1260.805860805861,,1,1,1768792269.676239
1768792269684.0515,1243.956043956044,,1,1,1768792269.6840515
1768792269691.864,1227.8388278388277,,1,1,1768792269.691864
1768792269699.6765,1215.3846153846152,,1,1,1768792269.6996765
1768792269707.489,1205.8608058608058,,1,1,1768792269.707489
1768792269715.3015,1200.7326007326008,,1,1,1768792269.7153015
1768792269723.114,1200.0,,1,1,1768792269.723114
1768792269730.9265,1203.6630036630036,,1,1,1768792269.7309265
1768792269738.739,1216.117216117216,,1,1,1768792269.738739
1768792269746.5515,1235.8974358974358,,1,1,1768792269.7465515
1768792269754.364,1262.2710622710622,,1,1,1768792269.754364
1768792269762.1765,1290.10989010989,,1,1,1768792269.7621765
1768792269769.989,1315.018315018315,,1,1,1768792269.769989
1768792269777.8015,1336.9963369963368,,1,1,1768792269.7778015
1768792269785.614,1353.8461538461538,,1,1,1768792269.785614
1768792269793.4265,1364.102564102564,,1,1,1768792269.7934265
1768792269801.239,1376.5567765567764,,1,1,1768792269.801239
1768792269809.0515,1394.8717948717947,,1,1,1768792269.8090515
1768792269816.864,1410.989010989011,,1,1,1768792269.816864
1768792269824.6765,1435.164835164835,,1,1,1768792269.8246765
1768792269832.489,1457.142857142857,,1,1,1768792269.832489
1768792269840.3015,1487.179487179487,,1,1,1768792269.8403015
1768792269848.114,1507.6923076923076,,1,1,1768792269.848114
1768792269855.9265,1521.6117216117216,,1,1,1768792269.8559265
1768792269863.739,1534.7985347985348,,1,1,1768792269.863739
1768792269871.5515,1539.194139194139,,1,1,1768792269.8715515
1768792269879.364,1544.3223443223442,,1,1,1768792269.879364
1768792269887.1765,1553.8461538461538,,1,1,1768792269.8871765
1768792269894.989,1560.4395604395604,,1,1,1768792269.894989
1768792269902.8015,1562.6373626373625,,1,1,1768792269.9028015
1768792269910.614,1566.3003663003662,,1,1,1768792269.910614
1768792269918.4265,1564.8351648351647,,1,1,1768792269.9184265
1768792269926.239,1556.7765567765566,,1,1,1768792269.926239
1768792269934.0515,1550.9157509157508,,1,1,1768792269.9340515
1768792269941.864,1548.7179487179485,,1,1,1768792269.941864
1768792269949.6765,1542.857142857143,,1,1,1768792269.9496765
1768792269957.489,1534.065934065934,,1,1,1768792269.957489
1768792269965.3015,1528.2051282051282,,1,1,1768792269.9653015
1768792269973.114,1523.0769230769229,,1,1,1768792269.973114
1768792269980.9265,1516.4835164835165,,1,1,1768792269.9809265
1768792269988.739,1505.4945054945051,,1,1,1768792269.988739
1768792269996.5515,1494.5054945054944,,0,-1,1768792269.9965515
1768792270004.364,1483.5164835164835,,0,-1,1768792270.004364
1768792270012.1765,1478.3882783882782,,0,-1,1768792270.0121765
1768792270019.989,1472.5274725274724,,0,-1,1768792270.019989
1768792270027.8015,1473.260073260073,,0,-1,1768792270.0278015
1768792270035.614,1479.120879120879,,0,-1,1768792270.035614
1768792270043.4265,1483.5164835164835,,0,-1,1768792270.0434265
1768792270051.239,1485.7142857142856,,0,-1,1768792270.051239
1768792270059.0515,1490.8424908424906,,0,-1,1768792270.0590515
1768792270066.864,1492.3076923076922,,0,-1,1768792270.066864
1768792270074.6765,1500.3663003663005,,0,-1,1768792270.0746765
1768792270082.489,1509.89010989011,,0,-1,1768792270.082489
1768792270090.3015,1512.8205128205127,,0,-1,1768792270.0903015
1768792270098.114,1514.2857142857142,,0,-1,1768792270.098114
1768792270105.9265,1507.6923076923076,,0,-1,1768792270.1059265
1768792270113.739,1498.9010989010987,,0,-1,1768792270.113739
1768792270121.5515,1490.10989010989,,0,-1,1768792270.1215515
1768792270129.364,1475.4578754578754,,0,-1,1768792270.129364
1768792270137.1765,1463.003663003663,,0,-1,1768792270.1371765
1768792270144.989,1456.4102564102564,,0,-1,1768792270.144989
1768792270152.8015,1452.014652014652,,0,-1,1768792270.1528015
1768792270160.614,1450.5494505494505,,0,-1,1768792270.160614
1768792270168.4265,1455.6776556776556,,0,-1,1768792270.1684265
1768792270176.239,1461.5384615384614,,0,-1,1768792270.176239
1768792270184.0515,1471.062271062271,,0,-1,1768792270.1840515
1768792270191.864,1477.6556776556777,,0,-1,1768792270.191864
1768792270199.6765,1487.179487179487,,0,-1,1768792270.1996765
1768792270207.489,1498.9010989010987,,0,-1,1768792270.207489
1768792270215.3015,1501.8315018315018,,0,-1,1768792270.2153015
1768792270223.114,1503.2967032967033,,0,-1,1768792270.223114
1768792270230.9265,1494.5054945054944,,0,-1,1768792270.2309265
1768792270238.739,1488.6446886446886,,0,-1,1768792270.238739
1768792270246.5515,1482.7838827838827,,0,-1,1768792270.2465515
1768792270254.364,1474.7252747252746,,0,-1,1768792270.254364
1768792270262.1765,1469.5970695970695,,0,-1,1768792270.2621765
1768792270269.989,1455.6776556776556,,0,-1,1768792270.269989
1768792270277.8015,1446.153846153846,,0,-1,1768792270.2778015
1768792270285.614,1437.362637362637,,0,-1,1768792270.285614
1768792270293.4265,1422.7106227106226,,0,-1,1768792270.2934265
1768792270301.239,1416.8498168498168,,0,-1,1768792270.301239
1768792270309.0515,1407.3260073260071,,0,-1,1768792270.3090515
1768792270316.864,1402.197802197802,,0,-1,1768792270.316864
1768792270324.6765,1397.8021978021975,,0,-1,1768792270.3246765
1768792270332.489,1390.4761904761904,,0,-1,1768792270.332489
1768792270340.3015,1389.0109890109889,,0,-1,1768792270.3403015
1768792270348.114,1389.7435897435896,,0,-1,1768792270.348114
1768792270355.9265,1397.8021978021975,,0,-1,1768792270.3559265
1768792270363.739,1400.7326007326003,,0,-1,1768792270.363739
1768792270371.5515,1408.7912087912086,,0,-1,1768792270.3715515
1768792270379.364,1419.7802197802198,,0,-1,1768792270.379364
1768792270387.1765,1430.7692307692307,,0,-1,1768792270.3871765
1768792270394.989,1445.4212454212454,,0,-1,1768792270.394989
1768792270402.8015,1460.805860805861,,0,-1,1768792270.4028015
1768792270410.614,1479.8534798534797,,0,-1,1768792270.410614
1768792270418.4265,1501.098901098901,,0,-1,1768792270.4184265
1768792270426.239,1517.9487179487178,,0,-1,1768792270.426239
1768792270434.0515,1537.7289377289376,,0,-1,1768792270.4340515
1768792270441.864,1553.8461538461538,,0,-1,1768792270.441864
1768792270449.6765,1563.3699633699632,,0,-1,1768792270.4496765
1768792270457.489,1572.161172161172,,0,-1,1768792270.457489
1768792270465.3015,1575.8241758241757,,0,-1,1768792270.4653015
1768792270473.114,1582.4175824175825,,0,-1,1768792270.473114
1768792270480.9265,1586.080586080586,,0,-1,1768792270.4809265
1768792270488.739,1592.6739926739926,,0,-1,1768792270.488739
1768792270496.5515,1595.6043956043954,,0,-1,1768792270.4965515
1768792270504.364,1590.4761904761904,,0,-1,1768792270.504364
1768792270512.1765,1582.4175824175825,,0,-1,1768792270.5121765
1768792270519.989,1564.102564102564,,0,-1,1768792270.519989
1768792270527.8015,1550.18315018315,,0,-1,1768792270.5278015
1768792270535.614,1531.8681318681315,,0,-1,1768792270.535614
1768792270543.4265,1520.8791208791208,,0,-1,1768792270.5434265
1768792270551.239,1504.7619047619046,,0,-1,1768792270.551239
1768792270559.0515,1495.970695970696,,0,-1,1768792270.5590515
1768792270566.864,1488.6446886446886,,0,-1,1768792270.566864
1768792270574.6765,1485.7142857142856,,0,-1,1768792270.5746765
1768792270582.489,1478.3882783882782,,0,-1,1768792270.582489
1768792270590.3015,1473.992673992674,,0,-1,1768792270.5903015
1768792270598.114,1471.7948717948716,,0,-1,1768792270.598114
1768792270605.9265,1463.003663003663,,0,-1,1768792270.6059265
1768792270613.739,1455.6776556776556,,0,-1,1768792270.613739
1768792270621.5515,1442.4908424908424,,0,-1,1768792270.6215515
1768792270629.364,1431.5018315018317,,0,-1,1768792270.629364
1768792270637.1765,1421.245421245421,,0,-1,1768792270.6371765
1768792270644.989,1416.8498168498168,,0,-1,1768792270.644989
1768792270652.8015,1413.9194139194135,,0,-1,1768792270.6528015
1768792270660.614,1413.1868131868132,,0,-1,1768792270.660614
1768792270668.4265,1415.3846153846152,,0,-1,1768792270.6684265
1768792270676.239,1413.1868131868132,,0,-1,1768792270.676239
1768792270684.0515,1417.5824175824175,,0,-1,1768792270.6840515
1768792270691.864,1419.047619047619,,0,-1,1768792270.691864
1768792270699.6765,1421.245421245421,,0,-1,1768792270.6996765
1768792270707.489,1425.6410256410256,,0,-1,1768792270.707489
1768792270715.3015,1431.5018315018317,,0,-1,1768792270.7153015
1768792270723.114,1441.0256410256409,,0,-1,1768792270.723114
1768792270730.9265,1447.6190476190477,,0,-1,1768792270.7309265
1768792270738.739,1455.6776556776556,,0,-1,1768792270.738739
1768792270746.5515,1468.8644688644688,,0,-1,1768792270.7465515
1768792270754.364,1487.179487179487,,0,-1,1768792270.754364
1768792270762.1765,1501.8315018315018,,0,-1,1768792270.7621765
1768792270769.989,1516.4835164835165,,0,-1,1768792270.769989
1768792270777.8015,1524.5421245421244,,0,-1,1768792270.7778015
1768792270785.614,1532.6007326007325,,0,-1,1768792270.785614
1768792270793.4265,1536.263736263736,,0,-1,1768792270.7934265
1768792270801.239,1539.194139194139,,0,-1,1768792270.801239
1768792270809.0515,1545.7875457875457,,0,-1,1768792270.8090515
1768792270816.864,1550.9157509157508,,0,-1,1768792270.816864
1768792270824.6765,1555.311355311355,,0,-1,1768792270.8246765
1768792270832.489,1561.1721611721612,,0,-1,1768792270.832489
1768792270840.3015,1565.5677655677655,,0,-1,1768792270.8403015
1768792270848.114,1573.6263736263736,,0,-1,1768792270.848114
1768792270855.9265,1583.150183150183,,0,-1,1768792270.8559265
1768792270863.739,1595.6043956043954,,0,-1,1768792270.863739
1768792270871.5515,1605.128205128205,,0,-1,1768792270.8715515
1768792270879.364,1609.5238095238094,,0,-1,1768792270.879364
1768792270887.1765,1608.7912087912086,,0,-1,1768792270.8871765
1768792270894.989,1605.8608058608058,,0,-1,1768792270.894989
1768792270902.8015,1594.139194139194,,0,-1,1768792270.9028015
1768792270910.614,1573.6263736263736,,0,-1,1768792270.910614
1768792270918.4265,1543.5897435897434,,0,-1,1768792270.9184265
1768792270926.239,1512.087912087912,,0,-1,1768792270.926239
1768792270934.0515,1474.7252747252746,,0,-1,1768792270.9340515
1768792270941.864,1438.8278388278388,,0,-1,1768792270.941864
1768792270949.6765,1394.139194139194,,0,-1,1768792270.9496765
1768792270957.489,1360.4395604395604,,0,-1,1768792270.957489
1768792270965.3015,1336.263736263736,,0,-1,1768792270.9653015
1768792270973.114,1324.5421245421244,,0,-1,1768792270.973114
1768792270980.9265,1328.937728937729,,0,-1,1768792270.9809265
1768792270988.739,1339.194139194139,,0,-1,1768792270.988739
1768792270996.5515,1351.6483516483515,,0,-1,1768792270.9965515
1768792271004.364,1369.230769230769,,0,-1,1768792271.004364
1768792271012.1765,1383.150183150183,,0,-1,1768792271.0121765
1768792271019.989,1402.9304029304028,,0,-1,1768792271.019989
1768792271027.8015,1418.3150183150185,,0,-1,1768792271.0278015
1768792271035.614,1427.8388278388277,,0,-1,1768792271.035614
1768792271043.4265,1435.8974358974358,,0,-1,1768792271.0434265
1768792271051.239,1432.9670329670328,,0,-1,1768792271.051239
1768792271059.0515,1433.6996336996335,,0,-1,1768792271.0590515
1768792271066.864,1434.4322344322345,,0,-1,1768792271.066864
1768792271074.6765,1437.362637362637,,0,-1,1768792271.0746765
1768792271082.489,1441.7582417582416,,0,-1,1768792271.082489
1768792271090.3015,1441.0256410256409,,0,-1,1768792271.0903015
1768792271098.114,1442.4908424908424,,0,-1,1768792271.098114
1768792271105.9265,1438.8278388278388,,0,-1,1768792271.1059265
1768792271113.739,1434.4322344322345,,0,-1,1768792271.113739
1768792271121.5515,1427.106227106227,,0,-1,1768792271.1215515
1768792271129.364,1416.8498168498168,,0,-1,1768792271.129364
1768792271137.1765,1405.8608058608058,,0,-1,1768792271.1371765
1768792271144.989,1389.0109890109889,,0,-1,1768792271.144989
1768792271152.8015,1375.8241758241757,,0,-1,1768792271.1528015
1768792271160.614,1358.241758241758,,0,-1,1768792271.160614
1768792271168.4265,1349.4505494505493,,0,-1,1768792271.1684265
1768792271176.239,1340.6593406593406,,0,-1,1768792271.176239
1768792271184.0515,1328.2051282051282,,0,-1,1768792271.1840515
1768792271191.864,1317.9487179487178,,0,-1,1768792271.191864
1768792271199.6765,1306.227106227106,,0,-1,1768792271.1996765
1768792271207.489,1295.970695970696,,0,-1,1768792271.207489
1768792271215.3015,1290.8424908424909,,0,-1,1768792271.2153015
1768792271223.114,1281.3186813186812,,0,-1,1768792271.223114
1768792271230.9265,1279.120879120879,,0,-1,1768792271.2309265
1768792271238.739,1274.7252747252746,,0,-1,1768792271.238739
1768792271246.5515,1276.923076923077,,0,-1,1768792271.2465515
1768792271254.364,1276.923076923077,,0,-1,1768792271.254364
1768792271262.1765,1284.9816849816848,,0,-1,1768792271.2621765
1768792271269.989,1290.10989010989,,0,-1,1768792271.269989
1768792271277.8015,1296.7032967032967,,0,-1,1768792271.2778015
1768792271285.614,1299.6336996336995,,0,-1,1768792271.285614
1768792271293.4265,1303.2967032967033,,0,-1,1768792271.2934265
1768792271301.239,1306.9597069597069,,0,-1,1768792271.301239
1768792271309.0515,1309.89010989011,,0,-1,1768792271.3090515
1768792271316.864,1313.5531135531137,,0,-1,1768792271.316864
1768792271324.6765,1317.9487179487178,,0,-1,1768792271.3246765
1768792271332.489,1323.076923076923,,0,-1,1768792271.332489
1768792271340.3015,1328.2051282051282,,0,-1,1768792271.3403015
1768792271348.114,1334.7985347985348,,0,-1,1768792271.348114
1768792271355.9265,1342.124542124542,,0,-1,1768792271.3559265
1768792271363.739,1347.2527472527472,,0,-1,1768792271.363739
1768792271371.5515,1350.18315018315,,0,-1,1768792271.3715515
1768792271379.364,1347.985347985348,,0,-1,1768792271.379364
1768792271387.1765,1342.857142857143,,0,-1,1768792271.3871765
1768792271394.989,1339.194139194139,,0,-1,1768792271.394989
1768792271402.8015,1336.263736263736,,0,-1,1768792271.4028015
1768792271410.614,1334.065934065934,,0,-1,1768792271.410614
1768792271418.4265,1335.5311355311355,,0,-1,1768792271.4184265
1768792271426.239,1331.8681318681315,,0,-1,1768792271.426239
1768792271434.0515,1328.937728937729,,0,-1,1768792271.4340515
1768792271441.864,1323.076923076923,,0,-1,1768792271.441864
1768792271449.6765,1315.7509157509155,,0,-1,1768792271.4496765
1768792271457.489,1304.0293040293038,,0,-1,1768792271.457489
1768792271465.3015,1287.179487179487,,0,-1,1768792271.4653015
1768792271473.114,1265.2014652014652,,0,-1,1768792271.473114
1768792271480.9265,1241.0256410256409,,0,-1,1768792271.4809265
1768792271488.739,1216.117216117216,,0,-1,1768792271.488739
1768792271496.5515,1193.4065934065934,,0,-1,1768792271.4965515
1768792271504.364,1169.230769230769,,0,-1,1768792271.504364
1768792271512.1765,1147.2527472527472,,0,-1,1768792271.5121765
1768792271519.989,1123.8095238095236,,0,-1,1768792271.519989
1768792271527.8015,1101.098901098901,,0,-1,1768792271.5278015
1768792271535.614,1081.3186813186812,,0,-1,1768792271.535614
1768792271543.4265,1071.062271062271,,0,-1,1768792271.5434265
1768792271551.239,1067.3992673992673,,0,-1,1768792271.551239
1768792271559.0515,1071.7948717948718,,0,-1,1768792271.5590515
1768792271566.864,1079.120879120879,,0,-1,1768792271.566864
1768792271574.6765,1093.040293040293,,0,-1,1768792271.5746765
1768792271582.489,1112.8205128205127,,0,-1,1768792271.582489
1768792271590.3015,1130.4029304029302,,0,-1,1768792271.5903015
1768792271598.114,1153.8461538461538,,0,-1,1768792271.598114
1768792271605.9265,1183.8827838827838,,0,-1,1768792271.6059265
1768792271613.739,1213.9194139194135,,0,-1,1768792271.613739
1768792271621.5515,1242.4908424908424,,0,-1,1768792271.6215515
1768792271629.364,1268.8644688644688,,0,-1,1768792271.629364
1768792271637.1765,1295.970695970696,,0,-1,1768792271.6371765
1768792271644.989,1321.6117216117216,,0,-1,1768792271.644989
1768792271652.8015,1339.92673992674,,0,-1,1768792271.6528015
1768792271660.614,1355.311355311355,,0,-1,1768792271.660614
1768792271668.4265,1371.428571428571,,0,-1,1768792271.6684265
1768792271676.239,1382.4175824175825,,0,-1,1768792271.676239
1768792271684.0515,1395.6043956043954,,0,-1,1768792271.6840515
1768792271691.864,1408.058608058608,,0,-1,1768792271.691864
1768792271699.6765,1419.7802197802198,,0,-1,1768792271.6996765
1768792271707.489,1427.106227106227,,0,-1,1768792271.707489
1768792271715.3015,1431.5018315018317,,0,-1,1768792271.7153015
1768792271723.114,1434.4322344322345,,0,-1,1768792271.723114
1768792271730.9265,1438.8278388278388,,0,-1,1768792271.7309265
1768792271738.739,1442.4908424908424,,0,-1,1768792271.738739
1768792271746.5515,1443.956043956044,,0,-1,1768792271.7465515
1768792271754.364,1440.29304029304,,0,-1,1768792271.754364
1768792271762.1765,1431.5018315018317,,0,-1,1768792271.7621765
1768792271769.989,1419.7802197802198,,0,-1,1768792271.769989
1768792271777.8015,1408.058608058608,,0,-1,1768792271.7778015
1768792271785.614,1397.069597069597,,0,-1,1768792271.785614
1768792271793.4265,1391.941391941392,,0,-1,1768792271.7934265
1768792271801.239,1383.150183150183,,0,-1,1768792271.801239
1768792271809.0515,1374.3589743589744,,0,-1,1768792271.8090515
1768792271816.864,1364.102564102564,,0,-1,1768792271.816864
1768792271824.6765,1354.5787545787546,,0,-1,1768792271.8246765
1768792271832.489,1344.3223443223442,,0,-1,1768792271.832489
1768792271840.3015,1336.9963369963368,,0,-1,1768792271.8403015
1768792271848.114,1328.2051282051282,,0,-1,1768792271.848114
1768792271855.9265,1323.076923076923,,0,-1,1768792271.8559265
1768792271863.739,1316.4835164835165,,0,-1,1768792271.863739
1768792271871.5515,1309.89010989011,,0,-1,1768792271.8715515
1768792271879.364,1304.0293040293038,,0,-1,1768792271.879364
1768792271887.1765,1298.9010989010987,,0,-1,1768792271.8871765
1768792271894.989,1295.2380952380952,,0,-1,1768792271.894989
1768792271902.8015,1290.8424908424909,,0,-1,1768792271.9028015
1768792271910.614,1289.3772893772891,,0,-1,1768792271.910614
1768792271918.4265,1287.179487179487,,0,-1,1768792271.9184265
1768792271926.239,1282.7838827838827,,0,-1,1768792271.926239
1768792271934.0515,1276.190476190476,,0,-1,1768792271.9340515
1768792271941.864,1271.062271062271,,0,-1,1768792271.941864
1768792271949.6765,1268.8644688644688,,0,-1,1768792271.9496765
1768792271957.489,1271.7948717948716,,0,-1,1768792271.957489
1768792271965.3015,1281.3186813186812,,0,-1,1768792271.9653015
1768792271973.114,1295.970695970696,,0,-1,1768792271.973114
1768792271980.9265,1315.018315018315,,0,-1,1768792271.9809265
1768792271988.739,1334.065934065934,,0,-1,1768792271.988739
1768792271996.5515,1347.985347985348,,0,-1,1768792271.9965515
1768792272004.364,1361.1721611721612,,0,-1,1768792272.004364
1768792272012.1765,1373.6263736263736,,0,-1,1768792272.0121765
1768792272019.989,1380.952380952381,,0,-1,1768792272.019989
1768792272027.8015,1386.8131868131868,,0,-1,1768792272.0278015
1768792272035.614,1392.6739926739926,,0,-1,1768792272.035614
1768792272043.4265,1398.5347985347985,,0,-1,1768792272.0434265
1768792272051.239,1405.128205128205,,0,-1,1768792272.051239
1768792272059.0515,1411.7216117216117,,0,-1,1768792272.0590515
1768792272066.864,1416.8498168498168,,0,-1,1768792272.066864
1768792272074.6765,1419.047619047619,,0,-1,1768792272.0746765
1768792272082.489,1419.047619047619,,0,-1,1768792272.082489
1768792272090.3015,1419.047619047619,,0,-1,1768792272.0903015
1768792272098.114,1419.047619047619,,0,-1,1768792272.098114
1768792272105.9265,1419.047619047619,,0,-1,1768792272.1059265
1768792272113.739,1423.4432234432234,,0,-1,1768792272.113739
1768792272121.5515,1431.5018315018317,,0,-1,1768792272.1215515
1768792272129.364,1446.153846153846,,0,-1,1768792272.129364
1768792272137.1765,1471.7948717948716,,0,-1,1768792272.1371765
1768792272144.989,1510.6227106227104,,0,-1,1768792272.144989
1768792272152.8015,1560.4395604395604,,0,-1,1768792272.1528015
1768792272160.614,1622.7106227106226,,0,-1,1768792272.160614
1768792272168.4265,1705.4945054945051,,0,-1,1768792272.1684265
1768792272176.239,1795.6043956043954,,0,-1,1768792272.176239
1768792272184.0515,1865.9340659340655,,0,-1,1768792272.1840515
1768792272191.864,1906.227106227106,,0,-1,1768792272.191864
1768792272199.6765,1915.7509157509155,,0,-1,1768792272.1996765
1768792272207.489,1895.970695970696,,0,-1,1768792272.207489
1768792272215.3015,1857.142857142857,,0,-1,1768792272.2153015
1768792272223.114,1807.3260073260071,,0,-1,1768792272.223114
1768792272230.9265,1748.7179487179485,,0,-1,1768792272.2309265
1768792272238.739,1684.249084249084,,0,-1,1768792272.238739
1768792272246.5515,1621.245421245421,,0,-1,1768792272.2465515
1768792272254.364,1563.3699633699632,,0,-1,1768792272.254364
1768792272262.1765,1510.6227106227104,,0,-1,1768792272.2621765
1768792272269.989,1465.201465201465,,0,-1,1768792272.269989
1768792272277.8015,1425.6410256410256,,0,-1,1768792272.2778015
1768792272285.614,1394.8717948717947,,0,-1,1768792272.285614
1768792272293.4265,1371.428571428571,,0,-1,1768792272.2934265
1768792272301.239,1356.7765567765566,,0,-1,1768792272.301239
1768792272309.0515,1351.6483516483515,,0,-1,1768792272.3090515
1768792272316.864,1361.1721611721612,,0,-1,1768792272.316864
1768792272324.6765,1381.6849816849815,,0,-1,1768792272.3246765
1768792272332.489,1410.989010989011,,0,-1,1768792272.332489
1768792272340.3015,1449.084249084249,,0,-1,1768792272.3403015
1768792272348.114,1494.5054945054944,,0,-1,1768792272.348114
1768792272355.9265,1545.054945054945,,0,-1,1768792272.3559265
1768792272363.739,1601.4652014652013,,0,-1,1768792272.363739
1768792272371.5515,1657.142857142857,,0,-1,1768792272.3715515
1768792272379.364,1712.8205128205127,,0,-1,1768792272.379364
1768792272387.1765,1767.032967032967,,0,-1,1768792272.3871765
1768792272394.989,1824.9084249084249,,0,-1,1768792272.394989
1768792272402.8015,1890.1098901098896,,0,-1,1768792272.4028015
1768792272410.614,1959.70695970696,,0,-1,1768792272.410614
1768792272418.4265,2023.4432234432236,,0,-1,1768792272.4184265
1768792272426.239,2067.399267399267,,0,-1,1768792272.426239
1768792272434.0515,2082.0512820512818,,0,-1,1768792272.4340515
1768792272441.864,2068.131868131868,,0,-1,1768792272.441864
1768792272449.6765,2030.03663003663,,0,-1,1768792272.4496765
1768792272457.489,1978.7545787545787,,0,-1,1768792272.457489
1768792272465.3015,1917.9487179487176,,0,-1,1768792272.4653015
1768792272473.114,1854.9450549450548,,0,-1,1768792272.473114
1768792272480.9265,1797.8021978021975,,0,-1,1768792272.4809265
1768792272488.739,1742.857142857143,,0,-1,1768792272.488739
1768792272496.5515,1693.040293040293,,0,-1,1768792272.4965515
1768792272504.364,1651.2820512820513,,0,-1,1768792272.504364
1768792272512.1765,1610.989010989011,,0,-1,1768792272.5121765
1768792272519.989,1569.230769230769,,0,-1,1768792272.519989
1768792272527.8015,1531.135531135531,,0,-1,1768792272.5278015
1768792272535.614,1493.7728937728937,,0,-1,1768792272.535614
1768792272543.4265,1463.003663003663,,0,-1,1768792272.5434265
1768792272551.239,1435.164835164835,,0,-1,1768792272.551239
1768792272559.0515,1411.7216117216117,,0,-1,1768792272.5590515
1768792272566.864,1391.941391941392,,0,-1,1768792272.566864
1768792272574.6765,1374.3589743589744,,0,-1,1768792272.5746765
1768792272582.489,1353.8461538461538,,0,-1,1768792272.582489
1768792272590.3015,1342.124542124542,,0,-1,1768792272.5903015
1768792272598.114,1326.739926739927,,0,-1,1768792272.598114
1768792272605.9265,1320.8791208791208,,0,-1,1768792272.6059265
1768792272613.739,1323.076923076923,,0,-1,1768792272.613739
1768792272621.5515,1329.6703296703297,,0,-1,1768792272.6215515
1768792272629.364,1339.92673992674,,0,-1,1768792272.629364
1768792272637.1765,1356.043956043956,,0,-1,1768792272.6371765
1768792272644.989,1380.2197802197802,,0,-1,1768792272.644989
1768792272652.8015,1407.3260073260071,,0,-1,1768792272.6528015
1768792272660.614,1427.8388278388277,,0,-1,1768792272.660614
1768792272668.4265,1439.5604395604394,,0,-1,1768792272.6684265
1768792272676.239,1447.6190476190477,,0,-1,1768792272.676239
1768792272684.0515,1456.4102564102564,,0,-1,1768792272.6840515
1768792272691.864,1462.2710622710622,,0,-1,1768792272.691864
1768792272699.6765,1463.003663003663,,0,-1,1768792272.6996765
1768792272707.489,1460.07326007326,,0,-1,1768792272.707489
1768792272715.3015,1455.6776556776556,,0,-1,1768792272.7153015
1768792272723.114,1443.2234432234432,,0,-1,1768792272.723114
1768792272730.9265,1432.9670329670328,,0,-1,1768792272.7309265
1768792272738.739,1418.3150183150185,,0,-1,1768792272.738739
1768792272746.5515,1408.7912087912086,,0,-1,1768792272.7465515
1768792272754.364,1406.5934065934066,,0,-1,1768792272.754364
1768792272762.1765,1408.7912087912086,,0,-1,1768792272.7621765
1768792272769.989,1422.7106227106226,,0,-1,1768792272.769989
1768792272777.8015,1440.29304029304,,0,-1,1768792272.7778015
1768792272785.614,1463.7362637362637,,0,-1,1768792272.785614
1768792272793.4265,1488.6446886446886,,0,-1,1768792272.7934265
1768792272801.239,1512.087912087912,,0,-1,1768792272.801239
1768792272809.0515,1526.007326007326,,0,-1,1768792272.8090515
1768792272816.864,1529.6703296703297,,0,-1,1768792272.816864
1768792272824.6765,1513.5531135531137,,0,-1,1768792272.8246765
1768792272832.489,1482.051282051282,,0,-1,1768792272.832489
1768792272840.3015,1445.4212454212454,,0,-1,1768792272.8403015
1768792272848.114,1397.069597069597,,0,-1,1768792272.848114
1768792272855.9265,1339.92673992674,,0,-1,1768792272.8559265
1768792272863.739,1285.7142857142856,,0,-1,1768792272.863739
1768792272871.5515,1230.7692307692307,,0,-1,1768792272.8715515
1768792272879.364,1175.8241758241757,,0,-1,1768792272.879364
1768792272887.1765,1126.007326007326,,0,-1,1768792272.8871765
1768792272894.989,1089.3772893772891,,0,-1,1768792272.894989
1768792272902.8015,1059.3406593406592,,0,-1,1768792272.9028015
1768792272910.614,1039.5604395604396,,0,-1,1768792272.910614
1768792272918.4265,1032.967032967033,,0,-1,1768792272.9184265
1768792272926.239,1041.0256410256409,,0,-1,1768792272.926239
1768792272934.0515,1063.003663003663,,0,-1,1768792272.9340515
1768792272941.864,1102.5641025641023,,0,-1,1768792272.941864
1768792272949.6765,1154.5787545787546,,0,-1,1768792272.9496765
1768792272957.489,1208.058608058608,,0,-1,1768792272.957489
1768792272965.3015,1267.3992673992673,,0,-1,1768792272.9653015
1768792272973.114,1329.6703296703297,,0,-1,1768792272.973114
1768792272980.9265,1386.8131868131868,,0,-1,1768792272.9809265
1768792272988.739,1445.4212454212454,,0,-1,1768792272.988739
1768792272996.5515,1491.5750915750914,,0,-1,1768792272.9965515
1768792273004.364,1536.263736263736,,0,-1,1768792273.004364
1768792273012.1765,1567.032967032967,,0,-1,1768792273.0121765
1768792273019.989,1589.7435897435896,,0,-1,1768792273.019989
1768792273027.8015,1593.4065934065934,,0,-1,1768792273.0278015
1768792273035.614,1588.278388278388,,0,-1,1768792273.035614
1768792273043.4265,1564.8351648351647,,0,-1,1768792273.0434265
1768792273051.239,1539.194139194139,,0,-1,1768792273.051239
1768792273059.0515,1505.4945054945051,,0,-1,1768792273.0590515
1768792273066.864,1474.7252747252746,,0,-1,1768792273.066864
1768792273074.6765,1444.688644688645,,0,-1,1768792273.0746765
1768792273082.489,1416.8498168498168,,0,-1,1768792273.082489
1768792273090.3015,1389.7435897435896,,0,-1,1768792273.0903015
1768792273098.114,1367.7655677655678,,0,-1,1768792273.098114
1768792273105.9265,1342.857142857143,,0,-1,1768792273.1059265
1768792273113.739,1319.4139194139193,,0,-1,1768792273.113739
1768792273121.5515,1293.040293040293,,0,-1,1768792273.1215515
1768792273129.364,1267.3992673992673,,0,-1,1768792273.129364
1768792273137.1765,1240.29304029304,,0,-1,1768792273.1371765
1768792273144.989,1217.5824175824175,,0,-1,1768792273.144989
1768792273152.8015,1197.069597069597,,0,-1,1768792273.1528015
1768792273160.614,1186.080586080586,,0,-1,1768792273.160614
1768792273168.4265,1178.7545787545787,,0,-1,1768792273.1684265
1768792273176.239,1184.6153846153843,,0,-1,1768792273.176239
1768792273184.0515,1191.2087912087911,,0,-1,1768792273.1840515
1768792273191.864,1205.128205128205,,0,-1,1768792273.191864
1768792273199.6765,1214.6520146520145,,0,-1,1768792273.1996765
1768792273207.489,1230.7692307692307,,0,-1,1768792273.207489
1768792273215.3015,1241.7582417582416,,0,-1,1768792273.2153015
1768792273223.114,1257.142857142857,,0,-1,1768792273.223114
1768792273230.9265,1269.5970695970695,,0,-1,1768792273.2309265
1768792273238.739,1287.9120879120878,,0,-1,1768792273.238739
1768792273246.5515,1304.7619047619046,,0,-1,1768792273.2465515
1768792273254.364,1328.2051282051282,,0,-1,1768792273.254364
1768792273262.1765,1346.5201465201465,,0,-1,1768792273.2621765
1768792273269.989,1365.5677655677655,,0,-1,1768792273.269989
1768792273277.8015,1383.150183150183,,0,-1,1768792273.2778015
1768792273285.614,1392.6739926739926,,0,-1,1768792273.285614
1768792273293.4265,1400.0,,0,-1,1768792273.2934265
1768792273301.239,1404.3956043956043,,0,-1,1768792273.301239
1768792273309.0515,1407.3260073260071,,0,-1,1768792273.3090515
1768792273316.864,1405.8608058608058,,0,-1,1768792273.316864
1768792273324.6765,1407.3260073260071,,0,-1,1768792273.3246765
1768792273332.489,1402.9304029304028,,0,-1,1768792273.332489
1768792273340.3015,1399.2673992673992,,0,-1,1768792273.3403015
1768792273348.114,1386.080586080586,,0,-1,1768792273.348114
1768792273355.9265,1378.021978021978,,0,-1,1768792273.3559265
1768792273363.739,1367.032967032967,,0,-1,1768792273.363739
1768792273371.5515,1360.4395604395604,,0,-1,1768792273.3715515
1768792273379.364,1353.113553113553,,0,-1,1768792273.379364
1768792273387.1765,1345.7875457875457,,0,-1,1768792273.3871765
1768792273394.989,1336.263736263736,,0,-1,1768792273.394989
1768792273402.8015,1326.007326007326,,0,-1,1768792273.4028015
1768792273410.614,1317.216117216117,,0,-1,1768792273.410614
1768792273418.4265,1304.0293040293038,,0,-1,1768792273.4184265
1768792273426.239,1301.098901098901,,0,-1,1768792273.426239
1768792273434.0515,1302.5641025641023,,0,-1,1768792273.4340515
1768792273441.864,1307.6923076923076,,0,-1,1768792273.441864
1768792273449.6765,1314.2857142857142,,0,-1,1768792273.4496765
1768792273457.489,1320.8791208791208,,0,-1,1768792273.457489
1768792273465.3015,1322.3443223443223,,0,-1,1768792273.4653015
1768792273473.114,1324.5421245421244,,0,-1,1768792273.473114
1768792273480.9265,1322.3443223443223,,0,-1,1768792273.4809265
1768792273488.739,1324.5421245421244,,0,-1,1768792273.488739
1768792273496.5515,1316.4835164835165,,0,-1,1768792273.4965515
1768792273504.364,1307.6923076923076,,0,-1,1768792273.504364
1768792273512.1765,1293.040293040293,,0,-1,1768792273.5121765
1768792273519.989,1284.9816849816848,,0,-1,1768792273.519989
1768792273527.8015,1279.120879120879,,0,-1,1768792273.5278015
1768792273535.614,1279.120879120879,,0,-1,1768792273.535614
1768792273543.4265,1274.7252747252746,,0,-1,1768792273.5434265
1768792273551.239,1273.260073260073,,0,-1,1768792273.551239
1768792273559.0515,1264.4688644688645,,0,-1,1768792273.5590515
1768792273566.864,1257.142857142857,,0,-1,1768792273.566864
1768792273574.6765,1249.8168498168498,,0,-1,1768792273.5746765
1768792273582.489,1234.4322344322345,,0,-1,1768792273.582489
1768792273590.3015,1221.9780219780218,,0,-1,1768792273.5903015
1768792273598.114,1211.7216117216117,,0,-1,1768792273.598114
1768792273605.9265,1202.9304029304028,,0,-1,1768792273.6059265
1768792273613.739,1201.4652014652013,,0,-1,1768792273.613739
1768792273621.5515,1200.0,,0,-1,1768792273.6215515
1768792273629.364,1205.8608058608058,,0,-1,1768792273.629364
1768792273637.1765,1208.7912087912086,,0,-1,1768792273.6371765
1768792273644.989,1216.117216117216,,0,-1,1768792273.644989
1768792273652.8015,1215.3846153846152,,0,-1,1768792273.6528015
1768792273660.614,1215.3846153846152,,0,-1,1768792273.660614
1768792273668.4265,1206.5934065934066,,0,-1,1768792273.6684265
1768792273676.239,1196.3369963369962,,0,-1,1768792273.676239
1768792273684.0515,1178.021978021978,,0,-1,1768792273.6840515
1768792273691.864,1167.032967032967,,0,-1,1768792273.691864
1768792273699.6765,1160.4395604395604,,0,-1,1768792273.6996765
1768792273707.489,1165.5677655677655,,0,-1,1768792273.707489
1768792273715.3015,1176.5567765567764,,0,-1,1768792273.7153015
1768792273723.114,1198.5347985347985,,0,-1,1768792273.723114
1768792273730.9265,1219.047619047619,,0,-1,1768792273.7309265
1768792273738.739,1245.4212454212454,,0,-1,1768792273.738739
1768792273746.5515,1262.2710622710622,,0,-1,1768792273.7465515
1768792273754.364,1274.7252747252746,,0,-1,1768792273.754364
1768792273762.1765,1286.4468864468863,,0,-1,1768792273.7621765
1768792273769.989,1291.5750915750914,,0,-1,1768792273.769989
1768792273777.8015,1302.5641025641023,,0,-1,1768792273.7778015
1768792273785.614,1307.6923076923076,,0,-1,1768792273.785614
1768792273793.4265,1315.018315018315,,0,-1,1768792273.7934265
1768792273801.239,1319.4139194139193,,0,-1,1768792273.801239
1768792273809.0515,1326.739926739927,,0,-1,1768792273.8090515
1768792273816.864,1325.2747252747251,,0,-1,1768792273.816864
1768792273824.6765,1323.076923076923,,0,-1,1768792273.8246765
1768792273832.489,1317.216117216117,,0,-1,1768792273.832489
1768792273840.3015,1306.227106227106,,0,-1,1768792273.8403015
1768792273848.114,1291.5750915750914,,0,-1,1768792273.848114
1768792273855.9265,1276.190476190476,,0,-1,1768792273.8559265
1768792273863.739,1264.4688644688645,,0,-1,1768792273.863739
1768792273871.5515,1257.142857142857,,0,-1,1768792273.8715515
1768792273879.364,1258.6080586080586,,0,-1,1768792273.879364
1768792273887.1765,1260.07326007326,,0,-1,1768792273.8871765
1768792273894.989,1267.3992673992673,,0,-1,1768792273.894989
1768792273902.8015,1265.2014652014652,,0,-1,1768792273.9028015
1768792273910.614,1263.003663003663,,0,-1,1768792273.910614
1768792273918.4265,1257.142857142857,,0,-1,1768792273.9184265
1768792273926.239,1256.4102564102564,,0,-1,1768792273.926239
1768792273934.0515,1252.7472527472526,,0,-1,1768792273.9340515
1768792273941.864,1253.479853479853,,0,-1,1768792273.941864
1768792273949.6765,1254.9450549450548,,0,-1,1768792273.9496765
1768792273957.489,1258.6080586080586,,0,-1,1768792273.957489
1768792273965.3015,1263.7362637362637,,0,-1,1768792273.9653015
1768792273973.114,1265.9340659340658,,0,-1,1768792273.973114
1768792273980.9265,1275.4578754578754,,0,-1,1768792273.9809265
1768792273988.739,1289.3772893772891,,0,-1,1768792273.988739
1768792273996.5515,1304.0293040293038,,0,-1,1768792273.9965515
1768792274004.364,1319.4139194139193,,0,-1,1768792274.004364
1768792274012.1765,1328.2051282051282,,0,-1,1768792274.0121765
1768792274019.989,1342.124542124542,,0,-1,1768792274.019989
1768792274027.8015,1350.18315018315,,0,-1,1768792274.0278015
1768792274035.614,1367.032967032967,,0,-1,1768792274.035614
1768792274043.4265,1380.2197802197802,,0,-1,1768792274.0434265
1768792274051.239,1397.8021978021975,,0,-1,1768792274.051239
1768792274059.0515,1408.7912087912086,,0,-1,1768792274.0590515
1768792274066.864,1419.047619047619,,0,-1,1768792274.066864
1768792274074.6765,1431.5018315018317,,0,-1,1768792274.0746765
1768792274082.489,1435.8974358974358,,0,-1,1768792274.082489
1768792274090.3015,1441.0256410256409,,0,-1,1768792274.0903015
1768792274098.114,1442.4908424908424,,0,-1,1768792274.098114
1768792274105.9265,1438.8278388278388,,0,-1,1768792274.1059265
1768792274113.739,1443.2234432234432,,0,-1,1768792274.113739
1768792274121.5515,1446.153846153846,,0,-1,1768792274.1215515
1768792274129.364,1453.479853479853,,0,-1,1768792274.129364
1768792274137.1765,1457.875457875458,,0,-1,1768792274.1371765
1768792274144.989,1460.07326007326,,0,-1,1768792274.144989
1768792274152.8015,1465.9340659340658,,0,-1,1768792274.1528015
1768792274160.614,1460.805860805861,,0,-1,1768792274.160614
1768792274168.4265,1452.7472527472526,,0,-1,1768792274.1684265
1768792274176.239,1441.0256410256409,,0,-1,1768792274.176239
1768792274184.0515,1430.03663003663,,0,-1,1768792274.1840515
1768792274191.864,1423.4432234432234,,0,-1,1768792274.191864
1768792274199.6765,1419.7802197802198,,0,-1,1768792274.1996765
1768792274207.489,1414.6520146520145,,0,-1,1768792274.207489
1768792274215.3015,1410.989010989011,,0,-1,1768792274.2153015
1768792274223.114,1409.5238095238094,,0,-1,1768792274.223114
1768792274230.9265,1405.8608058608058,,0,-1,1768792274.2309265
1768792274238.739,1402.9304029304028,,0,-1,1768792274.238739
1768792274246.5515,1396.3369963369962,,0,-1,1768792274.2465515
1768792274254.364,1383.8827838827838,,0,-1,1768792274.254364
1768792274262.1765,1378.7545787545787,,0,-1,1768792274.2621765
1768792274269.989,1372.8937728937728,,0,-1,1768792274.269989
1768792274277.8015,1369.230769230769,,0,-1,1768792274.2778015
1768792274285.614,1370.6959706959706,,0,-1,1768792274.285614
1768792274293.4265,1370.6959706959706,,0,-1,1768792274.2934265
1768792274301.239,1358.974358974359,,0,-1,1768792274.301239
1768792274309.0515,1346.5201465201465,,0,-1,1768792274.3090515
1768792274316.864,1332.6007326007325,,0,-1,1768792274.316864
1768792274324.6765,1320.8791208791208,,0,-1,1768792274.3246765
1768792274332.489,1312.087912087912,,0,-1,1768792274.332489
1768792274340.3015,1304.0293040293038,,0,-1,1768792274.3403015
1768792274348.114,1297.4358974358977,,0,-1,1768792274.348114
1768792274355.9265,1295.970695970696,,0,-1,1768792274.3559265
1768792274363.739,1290.8424908424909,,0,-1,1768792274.363739
1768792274371.5515,1285.7142857142856,,0,-1,1768792274.3715515
1768792274379.364,1280.5860805860805,,0,-1,1768792274.379364
1768792274387.1765,1280.5860805860805,,0,-1,1768792274.3871765
1768792274394.989,1280.5860805860805,,0,-1,1768792274.394989
1768792274402.8015,1283.5164835164835,,0,-1,1768792274.4028015
1768792274410.614,1284.9816849816848,,0,-1,1768792274.410614
1768792274418.4265,1281.3186813186812,,0,-1,1768792274.4184265
1768792274426.239,1275.4578754578754,,0,-1,1768792274.426239
1768792274434.0515,1271.7948717948716,,0,-1,1768792274.4340515
1768792274441.864,1268.8644688644688,,0,-1,1768792274.441864
1768792274449.6765,1268.131868131868,,0,-1,1768792274.4496765
1768792274457.489,1270.3296703296703,,0,-1,1768792274.457489
1768792274465.3015,1273.992673992674,,0,-1,1768792274.4653015
1768792274473.114,1277.6556776556777,,0,-1,1768792274.473114
1768792274480.9265,1279.120879120879,,0,-1,1768792274.4809265
1768792274488.739,1276.923076923077,,0,-1,1768792274.488739
1768792274496.5515,1279.8534798534797,,0,-1,1768792274.4965515
1768792274504.364,1286.4468864468863,,0,-1,1768792274.504364
1768792274512.1765,1297.4358974358977,,0,-1,1768792274.5121765
1768792274519.989,1308.4249084249084,,0,-1,1768792274.519989
1768792274527.8015,1323.8095238095236,,0,-1,1768792274.5278015
1768792274535.614,1338.4615384615383,,0,-1,1768792274.535614
1768792274543.4265,1347.2527472527472,,0,-1,1768792274.5434265
1768792274551.239,1347.2527472527472,,0,-1,1768792274.551239
1768792274559.0515,1345.054945054945,,0,-1,1768792274.5590515
1768792274566.864,1342.857142857143,,0,-1,1768792274.566864
1768792274574.6765,1340.6593406593406,,0,-1,1768792274.5746765
1768792274582.489,1336.9963369963368,,0,-1,1768792274.582489
1768792274590.3015,1330.4029304029302,,0,-1,1768792274.5903015
1768792274598.114,1322.3443223443223,,0,-1,1768792274.598114
1768792274605.9265,1314.2857142857142,,0,-1,1768792274.6059265
1768792274613.739,1301.8315018315018,,0,-1,1768792274.613739
1768792274621.5515,1287.9120879120878,,0,-1,1768792274.6215515
1768792274629.364,1279.8534798534797,,1,2,1768792274.629364
1768792274637.1765,1276.923076923077,,1,2,1768792274.6371765
1768792274644.989,1281.3186813186812,,1,2,1768792274.644989
1768792274652.8015,1287.9120879120878,,1,2,1768792274.6528015
1768792274660.614,1295.970695970696,,1,2,1768792274.660614
1768792274668.4265,1304.7619047619046,,1,2,1768792274.6684265
1768792274676.239,1309.89010989011,,1,2,1768792274.676239
1768792274684.0515,1313.5531135531137,,1,2,1768792274.6840515
1768792274691.864,1316.4835164835165,,1,2,1768792274.691864
1768792274699.6765,1317.216117216117,,1,2,1768792274.6996765
1768792274707.489,1315.018315018315,,1,2,1768792274.707489
1768792274715.3015,1316.4835164835165,,1,2,1768792274.7153015
1768792274723.114,1318.6813186813183,,1,2,1768792274.723114
1768792274730.9265,1320.14652014652,,1,2,1768792274.7309265
1768792274738.739,1323.076923076923,,1,2,1768792274.738739
1768792274746.5515,1321.6117216117216,,1,2,1768792274.7465515
1768792274754.364,1317.9487179487178,,1,2,1768792274.754364
1768792274762.1765,1314.2857142857142,,1,2,1768792274.7621765
1768792274769.989,1315.018315018315,,1,2,1768792274.769989
1768792274777.8015,1315.018315018315,,1,2,1768792274.7778015
1768792274785.614,1315.018315018315,,1,2,1768792274.785614
1768792274793.4265,1312.8205128205127,,1,2,1768792274.7934265
1768792274801.239,1309.89010989011,,1,2,1768792274.801239
1768792274809.0515,1306.9597069597069,,1,2,1768792274.8090515
1768792274816.864,1306.227106227106,,1,2,1768792274.816864
1768792274824.6765,1309.1575091575091,,1,2,1768792274.8246765
1768792274832.489,1309.89010989011,,1,2,1768792274.832489
1768792274840.3015,1307.6923076923076,,1,2,1768792274.8403015
1768792274848.114,1308.4249084249084,,1,2,1768792274.848114
1768792274855.9265,1310.6227106227104,,1,2,1768792274.8559265
1768792274863.739,1315.018315018315,,1,2,1768792274.863739
1768792274871.5515,1317.9487179487178,,1,2,1768792274.8715515
1768792274879.364,1324.5421245421244,,1,2,1768792274.879364
1768792274887.1765,1331.135531135531,,1,2,1768792274.8871765
1768792274894.989,1339.194139194139,,1,2,1768792274.894989
1768792274902.8015,1345.054945054945,,1,2,1768792274.9028015
1768792274910.614,1349.4505494505493,,1,2,1768792274.910614
1768792274918.4265,1347.2527472527472,,1,2,1768792274.9184265
1768792274926.239,1343.5897435897434,,1,2,1768792274.926239
1768792274934.0515,1339.194139194139,,1,2,1768792274.9340515
1768792274941.864,1332.6007326007325,,1,2,1768792274.941864
1768792274949.6765,1328.2051282051282,,1,2,1768792274.9496765
1768792274957.489,1326.739926739927,,1,2,1768792274.957489
1768792274965.3015,1326.739926739927,,1,2,1768792274.9653015
1768792274973.114,1328.2051282051282,,1,2,1768792274.973114
1768792274980.9265,1323.8095238095236,,1,2,1768792274.9809265
1768792274988.739,1322.3443223443223,,1,2,1768792274.988739
1768792274996.5515,1321.6117216117216,,1,2,1768792274.9965515
1768792275004.364,1323.076923076923,,1,2,1768792275.004364
1768792275012.1765,1324.5421245421244,,1,2,1768792275.0121765
1768792275019.989,1322.3443223443223,,1,2,1768792275.019989
1768792275027.8015,1320.14652014652,,1,2,1768792275.0278015
1768792275035.614,1312.087912087912,,1,2,1768792275.035614
1768792275043.4265,1302.5641025641023,,1,2,1768792275.0434265
1768792275051.239,1293.7728937728937,,1,2,1768792275.051239
1768792275059.0515,1290.8424908424909,,1,2,1768792275.0590515
1768792275066.864,1285.7142857142856,,1,2,1768792275.066864
1768792275074.6765,1280.5860805860805,,1,2,1768792275.0746765
1768792275082.489,1275.4578754578754,,1,2,1768792275.082489
1768792275090.3015,1272.5274725274724,,1,2,1768792275.0903015
1768792275098.114,1268.8644688644688,,1,2,1768792275.098114
1768792275105.9265,1268.8644688644688,,1,2,1768792275.1059265
1768792275113.739,1272.5274725274724,,1,2,1768792275.113739
1768792275121.5515,1276.190476190476,,1,2,1768792275.1215515
1768792275129.364,1277.6556776556777,,1,2,1768792275.129364
1768792275137.1765,1279.120879120879,,1,2,1768792275.1371765
1768792275144.989,1277.6556776556777,,1,2,1768792275.144989
1768792275152.8015,1277.6556776556777,,1,2,1768792275.1528015
1768792275160.614,1276.923076923077,,1,2,1768792275.160614
1768792275168.4265,1273.992673992674,,1,2,1768792275.1684265
1768792275176.239,1269.5970695970695,,1,2,1768792275.176239
1768792275184.0515,1261.5384615384614,,1,2,1768792275.1840515
1768792275191.864,1250.5494505494505,,1,2,1768792275.191864
1768792275199.6765,1241.0256410256409,,1,2,1768792275.1996765
1768792275207.489,1231.5018315018317,,1,2,1768792275.207489
1768792275215.3015,1226.3736263736264,,1,2,1768792275.2153015
1768792275223.114,1224.9084249084249,,1,2,1768792275.223114
1768792275230.9265,1223.4432234432234,,1,2,1768792275.2309265
1768792275238.739,1224.175824175824,,1,2,1768792275.238739
1768792275246.5515,1224.175824175824,,1,2,1768792275.2465515
1768792275254.364,1224.175824175824,,1,2,1768792275.254364
1768792275262.1765,1223.4432234432234,,1,2,1768792275.2621765
1768792275269.989,1224.9084249084249,,1,2,1768792275.269989
1768792275277.8015,1224.175824175824,,1,2,1768792275.2778015
1768792275285.614,1220.5128205128203,,1,2,1768792275.285614
1768792275293.4265,1212.4542124542124,,1,2,1768792275.2934265
1768792275301.239,1202.197802197802,,1,2,1768792275.301239
1768792275309.0515,1191.2087912087911,,1,2,1768792275.3090515
1768792275316.864,1184.6153846153843,,1,2,1768792275.316864
1768792275324.6765,1183.150183150183,,1,2,1768792275.3246765
1768792275332.489,1189.0109890109889,,1,2,1768792275.332489
1768792275340.3015,1197.069597069597,,1,2,1768792275.3403015
1768792275348.114,1200.0,,1,2,1768792275.348114
1768792275355.9265,1200.7326007326008,,1,2,1768792275.3559265
1768792275363.739,1200.0,,1,2,1768792275.363739
1768792275371.5515,1197.8021978021975,,1,2,1768792275.3715515
1768792275379.364,1195.6043956043954,,1,2,1768792275.379364
1768792275387.1765,1196.3369963369962,,1,2,1768792275.3871765
1768792275394.989,1198.5347985347985,,1,2,1768792275.394989
1768792275402.832,1203.6630036630036,,1,2,1768792275.402832
1768792275410.614,1208.058608058608,,1,2,1768792275.410614
1768792275418.4265,1218.3150183150185,,1,2,1768792275.4184265
1768792275426.239,1226.3736263736264,,1,2,1768792275.426239
1768792275434.0515,1231.5018315018317,,1,2,1768792275.4340515
1768792275441.864,1231.5018315018317,,1,2,1768792275.441864
1768792275449.6765,1232.2344322344322,,1,2,1768792275.4496765
1768792275457.489,1232.2344322344322,,1,2,1768792275.457489
1768792275465.3015,1232.2344322344322,,1,2,1768792275.4653015
1768792275473.114,1229.3040293040292,,1,2,1768792275.473114
1768792275480.9265,1224.9084249084249,,1,2,1768792275.4809265
1768792275488.739,1211.7216117216117,,1,2,1768792275.488739
1768792275496.5515,1188.278388278388,,1,2,1768792275.4965515
1768792275504.364,1158.974358974359,,1,2,1768792275.504364
1768792275512.1765,1123.076923076923,,1,2,1768792275.5121765
1768792275519.989,1084.981684981685,,1,2,1768792275.519989
1768792275527.8015,1048.3516483516482,,1,2,1768792275.5278015
1768792275535.614,1011.7216117216116,,1,2,1768792275.535614
1768792275543.4265,980.2197802197802,,1,2,1768792275.5434265
1768792275551.239,956.043956043956,,1,2,1768792275.551239
1768792275559.0515,939.1941391941392,,1,2,1768792275.5590515
1768792275566.864,928.2051282051282,,1,2,1768792275.566864
1768792275574.6765,926.007326007326,,1,2,1768792275.5746765
1768792275582.489,926.007326007326,,1,2,1768792275.582489
1768792275590.3015,929.6703296703296,,1,2,1768792275.5903015
1768792275598.114,934.065934065934,,1,2,1768792275.598114
1768792275605.9265,941.3919413919414,,1,2,1768792275.6059265
1768792275613.739,949.4505494505494,,1,2,1768792275.613739
1768792275621.5515,963.3699633699632,,1,2,1768792275.6215515
1768792275629.364,980.2197802197802,,1,2,1768792275.629364
1768792275637.1765,1001.4652014652014,,1,2,1768792275.6371765
1768792275644.989,1024.175824175824,,1,2,1768792275.644989
1768792275652.8015,1046.8864468864467,,1,2,1768792275.6528015
1768792275660.614,1068.8644688644688,,1,2,1768792275.660614
1768792275668.4265,1092.3076923076922,,1,2,1768792275.6684265
1768792275676.239,1115.7509157509155,,1,2,1768792275.676239
1768792275684.0515,1133.3333333333333,,1,2,1768792275.6840515
1768792275691.864,1148.7179487179487,,1,2,1768792275.691864
1768792275699.6765,1164.102564102564,,1,2,1768792275.6996765
1768792275707.489,1176.5567765567764,,1,2,1768792275.707489
1768792275715.3015,1188.278388278388,,1,2,1768792275.7153015
1768792275723.114,1200.7326007326008,,1,2,1768792275.723114
1768792275730.9265,1213.1868131868132,,1,2,1768792275.7309265
1768792275738.739,1222.7106227106226,,1,2,1768792275.738739
1768792275746.5515,1232.2344322344322,,1,2,1768792275.7465515
1768792275754.364,1241.7582417582416,,1,2,1768792275.754364
1768792275762.1765,1249.8168498168498,,1,2,1768792275.7621765
1768792275769.989,1254.9450549450548,,1,2,1768792275.769989
1768792275777.8015,1268.131868131868,,1,2,1768792275.7778015
1768792275785.614,1274.7252747252746,,1,2,1768792275.785614
1768792275793.4265,1279.120879120879,,1,2,1768792275.7934265
1768792275801.239,1277.6556776556777,,1,2,1768792275.801239
1768792275809.0515,1276.190476190476,,1,2,1768792275.8090515
1768792275816.864,1276.190476190476,,1,2,1768792275.816864
1768792275824.6765,1278.3882783882782,,1,2,1768792275.8246765
1768792275832.489,1281.3186813186812,,1,2,1768792275.832489
1768792275840.3015,1284.2490842490845,,1,2,1768792275.8403015
1768792275848.114,1282.7838827838827,,1,2,1768792275.848114
1768792275855.9265,1279.120879120879,,1,2,1768792275.8559265
1768792275863.739,1279.120879120879,,1,2,1768792275.863739
1768792275871.5515,1278.3882783882782,,1,2,1768792275.8715515
1768792275879.364,1279.120879120879,,1,2,1768792275.879364
1768792275887.1765,1282.051282051282,,1,2,1768792275.8871765
1768792275894.989,1285.7142857142856,,1,2,1768792275.894989
1768792275902.8015,1289.3772893772891,,1,2,1768792275.9028015
1768792275910.614,1295.2380952380952,,1,2,1768792275.910614
1768792275918.4265,1299.6336996336995,,1,2,1768792275.9184265
1768792275926.239,1299.6336996336995,,1,2,1768792275.926239
1768792275934.0515,1301.8315018315018,,1,2,1768792275.9340515
1768792275941.864,1298.9010989010987,,1,2,1768792275.941864
1768792275949.6765,1294.5054945054944,,1,2,1768792275.9496765
1768792275957.489,1290.10989010989,,1,2,1768792275.957489
1768792275965.3015,1290.8424908424909,,1,2,1768792275.9653015
1768792275973.114,1291.5750915750914,,1,2,1768792275.973114
1768792275980.9265,1292.3076923076922,,1,2,1768792275.9809265
1768792275988.739,1291.5750915750914,,1,2,1768792275.988739
1768792275996.5515,1291.5750915750914,,1,2,1768792275.9965515
1768792276004.364,1293.040293040293,,1,2,1768792276.004364
1768792276012.1765,1296.7032967032967,,1,2,1768792276.0121765
1768792276019.989,1302.5641025641023,,1,2,1768792276.019989
1768792276027.8015,1308.4249084249084,,1,2,1768792276.0278015
1768792276035.614,1314.2857142857142,,1,2,1768792276.035614
1768792276043.4265,1317.9487179487178,,1,2,1768792276.0434265
1768792276051.239,1322.3443223443223,,1,2,1768792276.051239
1768792276059.0515,1325.2747252747251,,1,2,1768792276.0590515
1768792276066.864,1325.2747252747251,,1,2,1768792276.066864
1768792276074.6765,1321.6117216117216,,1,2,1768792276.0746765
1768792276082.489,1317.216117216117,,1,2,1768792276.082489
1768792276090.3015,1312.087912087912,,1,2,1768792276.0903015
1768792276098.114,1307.6923076923076,,1,2,1768792276.098114
1768792276105.9265,1306.9597069597069,,1,2,1768792276.1059265
1768792276113.739,1306.9597069597069,,1,2,1768792276.113739
1768792276121.5515,1309.1575091575091,,1,2,1768792276.1215515
1768792276129.364,1311.3553113553112,,1,2,1768792276.129364
1768792276137.1765,1315.018315018315,,1,2,1768792276.1371765
1768792276144.989,1317.216117216117,,1,2,1768792276.144989
1768792276152.8015,1314.2857142857142,,1,2,1768792276.1528015
1768792276160.614,1310.6227106227104,,1,2,1768792276.160614
1768792276168.4265,1311.3553113553112,,1,2,1768792276.1684265
1768792276176.239,1314.2857142857142,,1,2,1768792276.176239
1768792276184.0515,1316.4835164835165,,1,2,1768792276.1840515
1768792276191.864,1319.4139194139193,,1,2,1768792276.191864
1768792276199.6765,1318.6813186813183,,1,2,1768792276.1996765
1768792276207.489,1314.2857142857142,,1,2,1768792276.207489
1768792276215.3015,1308.4249084249084,,1,2,1768792276.2153015
1768792276223.114,1304.0293040293038,,1,2,1768792276.223114
1768792276230.9265,1301.098901098901,,1,2,1768792276.2309265
1768792276238.739,1301.098901098901,,1,2,1768792276.238739
1768792276246.5515,1303.2967032967033,,1,2,1768792276.2465515
1768792276254.364,1306.227106227106,,1,2,1768792276.254364
1768792276262.1765,1309.1575091575091,,1,2,1768792276.2621765
1768792276269.989,1306.227106227106,,1,2,1768792276.269989
1768792276277.8015,1300.3663003663005,,1,2,1768792276.2778015
1768792276285.614,1293.040293040293,,1,2,1768792276.285614
1768792276293.4265,1289.3772893772891,,1,2,1768792276.2934265
1768792276301.239,1292.3076923076922,,1,2,1768792276.301239
1768792276309.0515,1291.5750915750914,,1,2,1768792276.3090515
1768792276316.864,1293.7728937728937,,1,2,1768792276.316864
1768792276324.6765,1294.5054945054944,,1,2,1768792276.3246765
1768792276332.489,1295.970695970696,,1,2,1768792276.332489
1768792276340.3015,1294.5054945054944,,1,2,1768792276.3403015
1768792276348.114,1292.3076923076922,,1,2,1768792276.348114
1768792276355.9265,1287.179487179487,,1,2,1768792276.3559265
1768792276363.739,1284.9816849816848,,1,2,1768792276.363739
1768792276371.5515,1284.2490842490845,,1,2,1768792276.3715515
1768792276379.364,1284.2490842490845,,1,2,1768792276.379364
1768792276387.1765,1282.051282051282,,1,2,1768792276.3871765
1768792276394.989,1279.120879120879,,1,2,1768792276.394989
1768792276402.8015,1273.260073260073,,1,2,1768792276.4028015
1768792276410.614,1265.9340659340658,,1,2,1768792276.410614
1768792276418.4265,1257.875457875458,,1,2,1768792276.4184265
1768792276426.239,1252.7472527472526,,1,2,1768792276.426239
1768792276434.0515,1252.7472527472526,,1,2,1768792276.4340515
1768792276441.864,1254.9450549450548,,1,2,1768792276.441864
1768792276449.6765,1259.3406593406592,,1,2,1768792276.4496765
1768792276457.489,1258.6080586080586,,1,2,1768792276.457489
1768792276465.3015,1253.479853479853,,1,2,1768792276.4653015
1768792276473.114,1248.3516483516482,,1,2,1768792276.473114
1768792276480.9265,1244.688644688645,,1,2,1768792276.4809265
1768792276488.739,1237.362637362637,,1,2,1768792276.488739
1768792276496.5515,1235.164835164835,,1,2,1768792276.4965515
1768792276504.364,1241.7582417582416,,1,2,1768792276.504364
1768792276512.1765,1252.7472527472526,,1,2,1768792276.5121765
1768792276519.989,1268.8644688644688,,1,2,1768792276.519989
1768792276527.8015,1287.9120879120878,,1,2,1768792276.5278015
1768792276535.614,1301.098901098901,,1,2,1768792276.535614
1768792276543.4265,1319.4139194139193,,1,2,1768792276.5434265
1768792276551.239,1329.6703296703297,,1,2,1768792276.551239
1768792276559.0515,1343.5897435897434,,1,2,1768792276.5590515
1768792276566.864,1351.6483516483515,,1,2,1768792276.566864
1768792276574.6765,1358.974358974359,,1,2,1768792276.5746765
1768792276582.489,1365.5677655677655,,1,2,1768792276.582489
1768792276590.3015,1369.9633699633698,,1,2,1768792276.5903015
1768792276598.114,1377.2893772893772,,1,2,1768792276.598114
1768792276605.9265,1380.952380952381,,1,2,1768792276.6059265
1768792276613.739,1383.150183150183,,1,2,1768792276.613739
1768792276621.5515,1390.4761904761904,,1,2,1768792276.6215515
1768792276629.364,1393.4065934065934,,1,2,1768792276.629364
1768792276637.1765,1400.0,,1,2,1768792276.6371765
1768792276644.989,1403.6630036630036,,1,2,1768792276.644989
1768792276652.8015,1402.197802197802,,1,2,1768792276.6528015
1768792276660.614,1405.128205128205,,1,2,1768792276.660614
1768792276668.4265,1404.3956043956043,,1,2,1768792276.6684265
1768792276676.239,1409.5238095238094,,1,2,1768792276.676239
1768792276684.0515,1413.9194139194135,,1,2,1768792276.6840515
1768792276691.864,1413.9194139194135,,1,2,1768792276.691864
1768792276699.6765,1419.047619047619,,1,2,1768792276.6996765
1768792276707.489,1416.117216117216,,1,2,1768792276.707489
1768792276715.3015,1414.6520146520145,,1,2,1768792276.7153015
1768792276723.114,1413.9194139194135,,1,2,1768792276.723114
1768792276730.9265,1411.7216117216117,,1,2,1768792276.7309265
1768792276738.739,1414.6520146520145,,1,2,1768792276.738739
1768792276746.5515,1413.9194139194135,,1,2,1768792276.7465515
1768792276754.364,1416.8498168498168,,1,2,1768792276.754364
1768792276762.1765,1416.8498168498168,,1,2,1768792276.7621765
1768792276769.989,1415.3846153846152,,1,2,1768792276.769989
1768792276777.8015,1415.3846153846152,,1,2,1768792276.7778015
1768792276785.614,1414.6520146520145,,1,2,1768792276.785614
1768792276793.4265,1414.6520146520145,,1,2,1768792276.7934265
1768792276801.239,1412.4542124542124,,1,2,1768792276.801239
1768792276809.0515,1405.8608058608058,,1,2,1768792276.8090515
1768792276816.864,1400.0,,1,2,1768792276.816864
1768792276824.6765,1395.6043956043954,,1,2,1768792276.8246765
1768792276832.489,1389.0109890109889,,1,2,1768792276.832489
1768792276840.3015,1386.080586080586,,1,2,1768792276.8403015
1768792276848.114,1380.2197802197802,,1,2,1768792276.848114
1768792276855.9265,1377.2893772893772,,1,2,1768792276.8559265
1768792276863.739,1371.428571428571,,1,2,1768792276.863739
1768792276871.5515,1370.6959706959706,,1,2,1768792276.8715515
1768792276879.364,1375.8241758241757,,1,2,1768792276.879364
1768792276887.1765,1383.150183150183,,1,2,1768792276.8871765
1768792276894.989,1395.6043956043954,,1,2,1768792276.894989
1768792276902.832,1403.6630036630036,,1,2,1768792276.902832
1768792276910.614,1408.058608058608,,1,2,1768792276.910614
1768792276918.4265,1410.2564102564102,,1,2,1768792276.9184265
1768792276926.239,1403.6630036630036,,1,2,1768792276.926239
1768792276934.0515,1401.4652014652013,,1,2,1768792276.9340515
1768792276941.864,1392.6739926739926,,1,2,1768792276.941864
1768792276949.6765,1384.6153846153843,,1,2,1768792276.9496765
1768792276957.489,1380.2197802197802,,1,2,1768792276.957489
1768792276965.3015,1370.6959706959706,,1,2,1768792276.9653015
1768792276973.114,1365.5677655677655,,1,2,1768792276.973114
1768792276980.9265,1356.043956043956,,1,2,1768792276.9809265
1768792276988.739,1353.113553113553,,1,2,1768792276.988739
1768792276996.5515,1350.18315018315,,1,2,1768792276.9965515
1768792277004.364,1346.5201465201465,,1,2,1768792277.004364
1768792277012.1765,1342.857142857143,,1,2,1768792277.0121765
1768792277019.989,1335.5311355311355,,1,2,1768792277.019989
1768792277027.8015,1333.3333333333333,,1,2,1768792277.0278015
1768792277035.614,1333.3333333333333,,1,2,1768792277.035614
1768792277043.4265,1337.7289377289376,,1,2,1768792277.0434265
1768792277051.239,1340.6593406593406,,1,2,1768792277.051239
1768792277059.0515,1347.985347985348,,1,2,1768792277.0590515
1768792277066.864,1348.7179487179487,,1,2,1768792277.066864
1768792277074.6765,1352.3809523809523,,1,2,1768792277.0746765
1768792277082.489,1350.9157509157508,,1,2,1768792277.082489
1768792277090.3015,1351.6483516483515,,1,2,1768792277.0903015
1768792277098.114,1342.124542124542,,1,2,1768792277.098114
1768792277105.9265,1336.9963369963368,,1,2,1768792277.1059265
1768792277113.739,1325.2747252747251,,1,2,1768792277.113739
1768792277121.5515,1320.8791208791208,,1,2,1768792277.1215515
1768792277129.364,1312.087912087912,,1,2,1768792277.129364
1768792277137.1765,1309.89010989011,,1,2,1768792277.1371765
1768792277144.989,1308.4249084249084,,1,2,1768792277.144989
1768792277152.8015,1315.018315018315,,1,2,1768792277.1528015
1768792277160.614,1320.8791208791208,,1,2,1768792277.160614
1768792277168.4265,1332.6007326007325,,1,2,1768792277.1684265
1768792277176.239,1336.9963369963368,,1,2,1768792277.176239
1768792277184.0515,1339.92673992674,,1,2,1768792277.1840515
1768792277191.864,1340.6593406593406,,1,2,1768792277.191864
1768792277199.6765,1340.6593406593406,,1,2,1768792277.1996765
1768792277207.489,1342.857142857143,,1,2,1768792277.207489
1768792277215.3015,1340.6593406593406,,1,2,1768792277.2153015
1768792277223.114,1340.6593406593406,,1,2,1768792277.223114
1768792277230.9265,1333.3333333333333,,1,2,1768792277.2309265
1768792277238.739,1331.135531135531,,1,2,1768792277.238739
1768792277246.5515,1326.007326007326,,1,2,1768792277.2465515
1768792277254.364,1320.14652014652,,1,2,1768792277.254364
1768792277262.1765,1319.4139194139193,,1,2,1768792277.2621765
1768792277269.989,1317.9487179487178,,1,2,1768792277.269989
1768792277277.8015,1319.4139194139193,,1,2,1768792277.2778015
1768792277285.614,1323.076923076923,,1,2,1768792277.285614
1768792277293.4265,1322.3443223443223,,1,2,1768792277.2934265
1768792277301.239,1320.8791208791208,,1,2,1768792277.301239
1768792277309.0515,1321.6117216117216,,1,2,1768792277.3090515
1768792277316.864,1312.8205128205127,,1,2,1768792277.316864
1768792277324.6765,1308.4249084249084,,1,2,1768792277.3246765
1768792277332.489,1302.5641025641023,,1,2,1768792277.332489
1768792277340.3015,1295.2380952380952,,1,2,1768792277.3403015
1768792277348.114,1293.7728937728937,,1,2,1768792277.348114
1768792277355.9265,1291.5750915750914,,1,2,1768792277.3559265
1768792277363.739,1295.2380952380952,,1,2,1768792277.363739
1768792277371.5515,1298.9010989010987,,1,2,1768792277.3715515
1768792277379.364,1303.2967032967033,,1,2,1768792277.379364
1768792277387.1765,1309.89010989011,,1,2,1768792277.3871765
1768792277394.989,1321.6117216117216,,1,2,1768792277.394989
1768792277402.8015,1335.5311355311355,,1,2,1768792277.4028015
1768792277410.614,1347.2527472527472,,1,2,1768792277.410614
1768792277418.4265,1364.102564102564,,1,2,1768792277.4184265
1768792277426.239,1378.021978021978,,1,2,1768792277.426239
1768792277434.0515,1400.0,,1,2,1768792277.4340515
1768792277441.864,1414.6520146520145,,0,-1,1768792277.441864
1768792277449.6765,1433.6996336996335,,0,-1,1768792277.4496765
1768792277457.489,1444.688644688645,,0,-1,1768792277.457489
1768792277465.3015,1457.142857142857,,0,-1,1768792277.4653015
1768792277473.114,1460.805860805861,,0,-1,1768792277.473114
1768792277480.9265,1469.5970695970695,,0,-1,1768792277.4809265
1768792277488.739,1472.5274725274724,,0,-1,1768792277.488739
1768792277496.5515,1476.190476190476,,0,-1,1768792277.4965515
1768792277504.364,1482.7838827838827,,0,-1,1768792277.504364
1768792277512.1765,1490.10989010989,,0,-1,1768792277.5121765
1768792277519.989,1498.168498168498,,0,-1,1768792277.519989
1768792277527.8015,1504.0293040293038,,0,-1,1768792277.5278015
1768792277535.614,1508.4249084249084,,0,-1,1768792277.535614
1768792277543.4265,1512.8205128205127,,0,-1,1768792277.5434265
1768792277551.239,1517.9487179487178,,0,-1,1768792277.551239
1768792277559.0515,1515.7509157509155,,0,-1,1768792277.5590515
1768792277566.864,1518.6813186813183,,0,-1,1768792277.566864
1768792277574.6765,1516.4835164835165,,0,-1,1768792277.5746765
1768792277582.489,1518.6813186813183,,0,-1,1768792277.582489
1768792277590.3015,1517.9487179487178,,0,-1,1768792277.5903015
1768792277598.114,1515.7509157509155,,0,-1,1768792277.598114
1768792277605.9265,1509.1575091575091,,0,-1,1768792277.6059265
1768792277613.739,1495.2380952380952,,0,-1,1768792277.613739
1768792277621.5515,1479.8534798534797,,0,-1,1768792277.6215515
1768792277629.364,1467.3992673992673,,0,-1,1768792277.629364
1768792277637.1765,1454.212454212454,,0,-1,1768792277.6371765
1768792277644.989,1441.7582417582416,,0,-1,1768792277.644989
1768792277652.8015,1432.9670329670328,,0,-1,1768792277.6528015
1768792277660.614,1430.7692307692307,,0,-1,1768792277.660614
1768792277668.4265,1428.5714285714284,,0,-1,1768792277.6684265
1768792277676.239,1428.5714285714284,,0,-1,1768792277.676239
1768792277684.0515,1429.3040293040292,,0,-1,1768792277.6840515
1768792277691.864,1430.03663003663,,0,-1,1768792277.691864
1768792277699.6765,1429.3040293040292,,0,-1,1768792277.6996765
1768792277707.489,1429.3040293040292,,0,-1,1768792277.707489
1768792277715.3015,1429.3040293040292,,0,-1,1768792277.7153015
1768792277723.114,1430.03663003663,,0,-1,1768792277.723114
1768792277730.9265,1435.164835164835,,0,-1,1768792277.7309265
1768792277738.739,1441.0256410256409,,0,-1,1768792277.738739
1768792277746.5515,1446.8864468864467,,0,-1,1768792277.7465515
1768792277754.364,1453.479853479853,,0,-1,1768792277.754364
1768792277762.1765,1464.4688644688645,,0,-1,1768792277.7621765
1768792277769.989,1472.5274725274724,,0,-1,1768792277.769989
1768792277777.8015,1478.3882783882782,,0,-1,1768792277.7778015
1768792277785.614,1484.9816849816848,,0,-1,1768792277.785614
1768792277793.4265,1482.7838827838827,,0,-1,1768792277.7934265
1768792277801.239,1479.8534798534797,,0,-1,1768792277.801239
1768792277809.0515,1472.5274725274724,,0,-1,1768792277.8090515
1768792277816.864,1466.6666666666663,,0,-1,1768792277.816864
1768792277824.6765,1461.5384615384614,,0,-1,1768792277.8246765
1768792277832.489,1457.142857142857,,0,-1,1768792277.832489
1768792277840.3015,1453.479853479853,,0,-1,1768792277.8403015
1768792277848.114,1449.8168498168498,,0,-1,1768792277.848114
1768792277855.9265,1441.7582417582416,,0,-1,1768792277.8559265
1768792277863.739,1437.362637362637,,0,-1,1768792277.863739
1768792277871.5515,1428.5714285714284,,0,-1,1768792277.8715515
1768792277879.364,1419.7802197802198,,0,-1,1768792277.879364
1768792277887.1765,1419.047619047619,,0,-1,1768792277.8871765
1768792277894.989,1418.3150183150185,,0,-1,1768792277.894989
1768792277902.8015,1417.5824175824175,,0,-1,1768792277.9028015
1768792277910.614,1419.047619047619,,0,-1,1768792277.910614
1768792277918.4265,1415.3846153846152,,0,-1,1768792277.9184265
1768792277926.239,1409.5238095238094,,0,-1,1768792277.926239
1768792277934.0515,1403.6630036630036,,0,-1,1768792277.9340515
1768792277941.864,1401.4652014652013,,0,-1,1768792277.941864
1768792277949.6765,1398.5347985347985,,0,-1,1768792277.9496765
1768792277957.489,1398.5347985347985,,0,-1,1768792277.957489
1768792277965.3015,1401.4652014652013,,0,-1,1768792277.9653015
1768792277973.114,1403.6630036630036,,0,-1,1768792277.973114
1768792277980.9265,1406.5934065934066,,0,-1,1768792277.9809265
1768792277988.739,1409.5238095238094,,0,-1,1768792277.988739
1768792277996.5515,1413.1868131868132,,0,-1,1768792277.9965515
1768792278004.364,1410.989010989011,,0,-1,1768792278.004364
1768792278012.1765,1403.6630036630036,,0,-1,1768792278.0121765
1768792278019.989,1399.2673992673992,,0,-1,1768792278.019989
1768792278027.8015,1392.6739926739926,,0,-1,1768792278.0278015
1768792278035.614,1387.5457875457876,,0,-1,1768792278.035614
1768792278043.4265,1383.150183150183,,0,-1,1768792278.0434265
1768792278051.239,1380.952380952381,,0,-1,1768792278.051239
1768792278059.0515,1381.6849816849815,,0,-1,1768792278.0590515
1768792278066.864,1381.6849816849815,,0,-1,1768792278.066864
1768792278074.6765,1380.2197802197802,,0,-1,1768792278.0746765
1768792278082.489,1378.021978021978,,0,-1,1768792278.082489
1768792278090.3015,1376.5567765567764,,0,-1,1768792278.0903015
1768792278098.114,1378.021978021978,,0,-1,1768792278.098114
1768792278105.9265,1375.8241758241757,,0,-1,1768792278.1059265
1768792278113.739,1369.9633699633698,,0,-1,1768792278.113739
1768792278121.5515,1364.8351648351647,,0,-1,1768792278.1215515
1768792278129.364,1362.6373626373625,,0,-1,1768792278.129364
1768792278137.1765,1361.904761904762,,0,-1,1768792278.1371765
1768792278144.989,1360.4395604395604,,0,-1,1768792278.144989
1768792278152.8015,1357.5091575091574,,0,-1,1768792278.1528015
1768792278160.614,1356.7765567765566,,0,-1,1768792278.160614
1768792278168.4265,1354.5787545787546,,0,-1,1768792278.1684265
1768792278176.239,1351.6483516483515,,0,-1,1768792278.176239
1768792278184.0515,1348.7179487179487,,0,-1,1768792278.1840515
1768792278191.864,1347.985347985348,,0,-1,1768792278.191864
1768792278199.6765,1351.6483516483515,,0,-1,1768792278.1996765
1768792278207.489,1353.8461538461538,,0,-1,1768792278.207489
1768792278215.3015,1357.5091575091574,,0,-1,1768792278.2153015
1768792278223.114,1363.3699633699632,,0,-1,1768792278.223114
1768792278230.9265,1374.3589743589744,,0,-1,1768792278.2309265
1768792278238.739,1391.2087912087911,,0,-1,1768792278.238739
1768792278246.5515,1407.3260073260071,,0,-1,1768792278.2465515
1768792278254.364,1424.9084249084249,,0,-1,1768792278.254364
1768792278262.1765,1444.688644688645,,0,-1,1768792278.2621765
1768792278269.989,1465.9340659340658,,0,-1,1768792278.269989
1768792278277.8015,1486.4468864468863,,0,-1,1768792278.2778015
1768792278285.614,1506.227106227106,,0,-1,1768792278.285614
1768792278293.4265,1526.739926739927,,0,-1,1768792278.2934265
1768792278301.239,1544.3223443223442,,0,-1,1768792278.301239
1768792278309.0515,1561.9047619047617,,0,-1,1768792278.3090515
1768792278316.864,1580.9523809523807,,0,-1,1768792278.316864
1768792278324.6765,1601.4652014652013,,0,-1,1768792278.3246765
1768792278332.489,1619.047619047619,,0,-1,1768792278.332489
1768792278340.3015,1630.03663003663,,0,-1,1768792278.3403015
1768792278348.114,1636.6300366300366,,0,-1,1768792278.348114
1768792278355.9265,1636.6300366300366,,0,-1,1768792278.3559265
1768792278363.739,1634.4322344322345,,0,-1,1768792278.363739
1768792278371.5515,1627.8388278388277,,0,-1,1768792278.3715515
1768792278379.364,1620.5128205128203,,0,-1,1768792278.379364
1768792278387.1765,1617.5824175824175,,0,-1,1768792278.3871765
1768792278394.989,1618.3150183150185,,0,-1,1768792278.394989
1768792278402.8015,1619.7802197802196,,0,-1,1768792278.4028015
1768792278410.614,1618.3150183150185,,0,-1,1768792278.410614
1768792278418.4265,1617.5824175824175,,0,-1,1768792278.4184265
1768792278426.239,1617.5824175824175,,0,-1,1768792278.426239
1768792278434.0515,1618.3150183150185,,0,-1,1768792278.4340515
1768792278441.864,1619.7802197802196,,0,-1,1768792278.441864
1768792278449.6765,1619.7802197802196,,0,-1,1768792278.4496765
1768792278457.489,1618.3150183150185,,0,-1,1768792278.457489
1768792278465.3015,1614.6520146520145,,0,-1,1768792278.4653015
1768792278473.114,1610.989010989011,,0,-1,1768792278.473114
1768792278480.9265,1605.128205128205,,0,-1,1768792278.4809265
1768792278488.739,1596.3369963369962,,0,-1,1768792278.488739
1768792278496.5515,1586.8131868131868,,0,-1,1768792278.4965515
1768792278504.364,1580.2197802197802,,0,-1,1768792278.504364
1768792278512.1765,1572.161172161172,,0,-1,1768792278.5121765
1768792278519.989,1564.102564102564,,0,-1,1768792278.519989
1768792278527.8015,1556.7765567765566,,0,-1,1768792278.5278015
1768792278535.614,1555.311355311355,,0,-1,1768792278.535614
1768792278543.4265,1558.241758241758,,0,-1,1768792278.5434265
1768792278551.239,1561.9047619047617,,0,-1,1768792278.551239
1768792278559.0515,1567.7655677655678,,0,-1,1768792278.5590515
1768792278566.864,1571.428571428571,,0,-1,1768792278.566864
1768792278574.6765,1575.091575091575,,0,-1,1768792278.5746765
1768792278582.489,1575.8241758241757,,0,-1,1768792278.582489
1768792278590.3015,1576.5567765567764,,0,-1,1768792278.5903015
1768792278598.114,1577.2893772893772,,0,-1,1768792278.598114
1768792278605.9265,1574.3589743589744,,0,-1,1768792278.6059265
1768792278613.739,1567.032967032967,,0,-1,1768792278.613739
1768792278621.5515,1558.974358974359,,0,-1,1768792278.6215515
1768792278629.364,1548.7179487179485,,0,-1,1768792278.629364
1768792278637.1765,1539.92673992674,,0,-1,1768792278.6371765
1768792278644.989,1534.7985347985348,,0,-1,1768792278.644989
1768792278652.8015,1529.6703296703297,,0,-1,1768792278.6528015
1768792278660.614,1523.8095238095236,,0,-1,1768792278.660614
1768792278668.4265,1515.7509157509155,,0,-1,1768792278.6684265
1768792278676.239,1508.4249084249084,,0,-1,1768792278.676239
1768792278684.0515,1501.8315018315018,,0,-1,1768792278.6840515
1768792278691.864,1493.040293040293,,0,-1,1768792278.691864
1768792278699.6765,1487.9120879120878,,0,-1,1768792278.6996765
1768792278707.489,1482.051282051282,,0,-1,1768792278.707489
1768792278715.3015,1473.992673992674,,0,-1,1768792278.7153015
1768792278723.114,1467.3992673992673,,0,-1,1768792278.723114
1768792278730.9265,1461.5384615384614,,0,-1,1768792278.7309265
1768792278738.739,1460.805860805861,,0,-1,1768792278.738739
1768792278746.5515,1455.6776556776556,,0,-1,1768792278.7465515
1768792278754.364,1450.5494505494505,,0,-1,1768792278.754364
1768792278762.1765,1444.688644688645,,0,-1,1768792278.7621765
1768792278769.989,1438.095238095238,,0,-1,1768792278.769989
1768792278777.8015,1431.5018315018317,,0,-1,1768792278.7778015
1768792278785.614,1426.3736263736262,,0,-1,1768792278.785614
1768792278793.4265,1424.9084249084249,,0,-1,1768792278.7934265
1768792278801.239,1427.8388278388277,,0,-1,1768792278.801239
1768792278809.0515,1429.3040293040292,,0,-1,1768792278.8090515
1768792278816.864,1430.7692307692307,,0,-1,1768792278.816864
1768792278824.6765,1428.5714285714284,,0,-1,1768792278.8246765
1768792278832.489,1423.4432234432234,,0,-1,1768792278.832489
1768792278840.3015,1420.5128205128203,,0,-1,1768792278.8403015
1768792278848.114,1419.7802197802198,,0,-1,1768792278.848114
1768792278855.9265,1420.5128205128203,,0,-1,1768792278.8559265
1768792278863.739,1417.5824175824175,,0,-1,1768792278.863739
1768792278871.5515,1414.6520146520145,,0,-1,1768792278.8715515
1768792278879.364,1411.7216117216117,,0,-1,1768792278.879364
1768792278887.1765,1408.7912087912086,,0,-1,1768792278.8871765
1768792278894.989,1405.8608058608058,,0,-1,1768792278.894989
1768792278902.8015,1405.128205128205,,0,-1,1768792278.9028015
1768792278910.614,1405.8608058608058,,0,-1,1768792278.910614
1768792278918.4265,1407.3260073260071,,0,-1,1768792278.9184265
1768792278926.239,1408.058608058608,,0,-1,1768792278.926239
1768792278934.0515,1410.2564102564102,,0,-1,1768792278.9340515
