Shimmer_6815_Timestamp_Unix_CAL,Shimmer_6815_PPG_A13_CAL,Unnamed: 2,inhale,inhale_id,epoch_sec
1768872239056.1523,73.99267399267399,,0,-1,1768872239.0561523
1768872239063.9648,177.28937728937728,,0,-1,1768872239.0639648
1768872239071.777,296.7032967032967,,0,-1,1768872239.071777
1768872239079.5898,411.7216117216117,,0,-1,1768872239.0795898
1768872239087.4023,524.5421245421245,,0,-1,1768872239.0874023
1768872239095.2148,632.9670329670329,,0,-1,1768872239.0952148
1768872239103.027,726.007326007326,,0,-1,1768872239.103027
1768872239110.8398,807.3260073260072,,0,-1,1768872239.1108398
1768872239118.6523,879.8534798534798,,0,-1,1768872239.1186523
1768872239126.4648,939.1941391941392,,0,-1,1768872239.1264648
1768872239134.277,989.010989010989,,0,-1,1768872239.134277
1768872239142.0898,1033.6996336996335,,0,-1,1768872239.1420898
1768872239149.9023,1073.992673992674,,0,-1,1768872239.1499023
1768872239157.7148,1104.7619047619046,,0,-1,1768872239.1577148
1768872239165.527,1130.4029304029302,,0,-1,1768872239.165527
1768872239173.3398,1150.9157509157508,,0,-1,1768872239.1733398
1768872239181.1523,1163.3699633699632,,0,-1,1768872239.1811523
1768872239188.9648,1177.2893772893772,,0,-1,1768872239.1889648
1768872239196.777,1182.4175824175825,,0,-1,1768872239.196777
1768872239204.5898,1189.0109890109889,,0,-1,1768872239.2045898
1768872239212.4023,1195.6043956043954,,0,-1,1768872239.2124023
1768872239220.2148,1198.5347985347985,,0,-1,1768872239.2202148
1768872239228.027,1202.9304029304028,,0,-1,1768872239.228027
1768872239235.8398,1200.7326007326008,,0,-1,1768872239.2358398
1768872239243.6523,1201.4652014652013,,0,-1,1768872239.2436523
1768872239251.4648,1191.2087912087911,,0,-1,1768872239.2514648
1768872239259.277,1181.6849816849815,,0,-1,1768872239.259277
1768872239267.0898,1169.9633699633698,,0,-1,1768872239.2670898
1768872239274.9023,1163.3699633699632,,0,-1,1768872239.2749023
1768872239282.7148,1154.5787545787546,,0,-1,1768872239.2827148
1768872239290.527,1150.9157509157508,,0,-1,1768872239.290527
1768872239298.3398,1145.054945054945,,0,-1,1768872239.2983398
1768872239306.1523,1149.4505494505493,,0,-1,1768872239.3061523
1768872239313.9648,1149.4505494505493,,0,-1,1768872239.3139648
1768872239321.777,1153.113553113553,,0,-1,1768872239.321777
1768872239329.5898,1156.043956043956,,0,-1,1768872239.3295898
1768872239337.4023,1161.1721611721612,,0,-1,1768872239.3374023
1768872239345.2148,1168.4981684981683,,0,-1,1768872239.3452148
1768872239353.027,1180.2197802197802,,0,-1,1768872239.353027
1768872239360.8398,1187.5457875457876,,0,-1,1768872239.3608398
1768872239368.6523,1197.8021978021975,,0,-1,1768872239.3686523
1768872239376.4648,1204.3956043956043,,0,-1,1768872239.3764648
1768872239384.277,1206.5934065934066,,0,-1,1768872239.384277
1768872239392.0898,1210.2564102564102,,0,-1,1768872239.3920898
1768872239399.9023,1202.9304029304028,,0,-1,1768872239.3999023
1768872239407.7148,1197.8021978021975,,0,-1,1768872239.4077148
1768872239415.527,1189.7435897435896,,0,-1,1768872239.415527
1768872239423.3398,1186.080586080586,,0,-1,1768872239.4233398
1768872239431.1523,1183.150183150183,,0,-1,1768872239.4311523
1768872239438.9648,1181.6849816849815,,0,-1,1768872239.4389648
1768872239446.777,1183.150183150183,,0,-1,1768872239.446777
1768872239454.5898,1180.2197802197802,,0,-1,1768872239.4545898
1768872239462.4023,1180.952380952381,,0,-1,1768872239.4624023
1768872239470.2148,1172.161172161172,,0,-1,1768872239.4702148
1768872239478.027,1169.230769230769,,0,-1,1768872239.478027
1768872239485.8398,1173.6263736263736,,0,-1,1768872239.4858398
1768872239493.6523,1179.4871794871794,,0,-1,1768872239.4936523
1768872239501.4648,1191.941391941392,,0,-1,1768872239.5014648
1768872239509.277,1202.197802197802,,0,-1,1768872239.509277
1768872239517.0898,1214.6520146520145,,0,-1,1768872239.5170898
1768872239524.9023,1223.4432234432234,,0,-1,1768872239.5249023
1768872239532.7148,1223.4432234432234,,0,-1,1768872239.5327148
1768872239540.527,1227.106227106227,,0,-1,1768872239.540527
1768872239548.3398,1231.5018315018317,,0,-1,1768872239.5483398
1768872239556.1523,1234.4322344322345,,0,-1,1768872239.5561523
1768872239563.9648,1244.688644688645,,0,-1,1768872239.5639648
1768872239571.777,1253.479853479853,,0,-1,1768872239.571777
1768872239579.5898,1266.6666666666663,,0,-1,1768872239.5795898
1768872239587.4023,1279.120879120879,,0,-1,1768872239.5874023
1768872239595.2148,1291.5750915750914,,0,-1,1768872239.5952148
1768872239603.027,1295.970695970696,,0,-1,1768872239.603027
1768872239610.8398,1297.4358974358977,,0,-1,1768872239.6108398
1768872239618.6523,1295.970695970696,,0,-1,1768872239.6186523
1768872239626.4648,1291.5750915750914,,0,-1,1768872239.6264648
1768872239634.277,1288.6446886446886,,0,-1,1768872239.634277
1768872239642.0898,1282.051282051282,,0,-1,1768872239.6420898
1768872239649.9023,1278.3882783882782,,0,-1,1768872239.6499023
1768872239657.7148,1275.4578754578754,,0,-1,1768872239.6577148
1768872239665.527,1272.5274725274724,,0,-1,1768872239.665527
1768872239673.3398,1272.5274725274724,,0,-1,1768872239.6733398
1768872239681.1523,1276.190476190476,,0,-1,1768872239.6811523
1768872239688.9648,1279.8534798534797,,0,-1,1768872239.6889648
1768872239696.777,1282.051282051282,,0,-1,1768872239.696777
1768872239704.5898,1279.120879120879,,0,-1,1768872239.7045898
1768872239712.4023,1273.260073260073,,0,-1,1768872239.7124023
1768872239720.2148,1265.9340659340658,,0,-1,1768872239.7202148
1768872239728.027,1260.07326007326,,0,-1,1768872239.728027
1768872239735.8398,1253.479853479853,,0,-1,1768872239.7358398
1768872239743.6523,1247.6190476190477,,0,-1,1768872239.7436523
1768872239751.4648,1243.956043956044,,0,-1,1768872239.7514648
1768872239759.277,1244.688644688645,,0,-1,1768872239.759277
1768872239767.0898,1247.6190476190477,,0,-1,1768872239.7670898
1768872239774.9023,1250.5494505494505,,0,-1,1768872239.7749023
1768872239782.7148,1252.7472527472526,,0,-1,1768872239.7827148
1768872239790.527,1253.479853479853,,0,-1,1768872239.790527
1768872239798.3398,1252.7472527472526,,0,-1,1768872239.7983398
1768872239806.1523,1251.2820512820513,,0,-1,1768872239.8061523
1768872239813.9648,1252.014652014652,,0,-1,1768872239.8139648
1768872239821.777,1257.142857142857,,0,-1,1768872239.821777
1768872239829.5898,1265.2014652014652,,0,-1,1768872239.8295898
1768872239837.4023,1271.062271062271,,0,-1,1768872239.8374023
1768872239845.2148,1271.062271062271,,0,-1,1768872239.8452148
1768872239853.027,1268.131868131868,,0,-1,1768872239.853027
1768872239860.8398,1263.7362637362637,,0,-1,1768872239.8608398
1768872239868.6523,1260.07326007326,,0,-1,1768872239.8686523
1768872239876.4648,1254.9450549450548,,0,-1,1768872239.8764648
1768872239884.277,1252.7472527472526,,0,-1,1768872239.884277
1768872239892.0898,1252.7472527472526,,0,-1,1768872239.8920898
1768872239899.9023,1252.7472527472526,,0,-1,1768872239.8999023
1768872239907.7148,1254.212454212454,,0,-1,1768872239.9077148
1768872239915.527,1254.9450549450548,,0,-1,1768872239.915527
1768872239923.3398,1257.142857142857,,0,-1,1768872239.9233398
1768872239931.1523,1256.4102564102564,,0,-1,1768872239.9311523
1768872239938.9648,1254.212454212454,,0,-1,1768872239.9389648
1768872239946.777,1249.8168498168498,,0,-1,1768872239.946777
1768872239954.5898,1245.4212454212454,,0,-1,1768872239.9545898
1768872239962.4023,1239.5604395604396,,0,-1,1768872239.9624023
1768872239970.2148,1241.0256410256409,,0,-1,1768872239.9702148
1768872239978.027,1246.153846153846,,0,-1,1768872239.978027
1768872239985.8398,1254.9450549450548,,0,-1,1768872239.9858398
1768872239993.6523,1263.003663003663,,0,-1,1768872239.9936523
1768872240001.4648,1263.7362637362637,,1,2,1768872240.0014648
1768872240009.277,1257.875457875458,,1,2,1768872240.009277
1768872240017.0898,1254.212454212454,,1,2,1768872240.0170898
1768872240024.9023,1254.9450549450548,,1,2,1768872240.0249023
1768872240032.7148,1257.142857142857,,1,2,1768872240.0327148
1768872240040.527,1262.2710622710622,,1,2,1768872240.040527
1768872240048.3398,1268.8644688644688,,1,2,1768872240.0483398
1768872240056.1523,1273.260073260073,,1,2,1768872240.0561523
1768872240063.9648,1278.3882783882782,,1,2,1768872240.0639648
1768872240071.777,1284.2490842490845,,1,2,1768872240.071777
1768872240079.5898,1294.5054945054944,,1,2,1768872240.0795898
1768872240087.4023,1303.2967032967033,,1,2,1768872240.0874023
1768872240095.2148,1306.9597069597069,,1,2,1768872240.0952148
1768872240103.027,1312.8205128205127,,1,2,1768872240.103027
1768872240110.8398,1324.5421245421244,,1,2,1768872240.1108398
1768872240118.6523,1331.8681318681315,,1,2,1768872240.1186523
1768872240126.4648,1331.8681318681315,,1,2,1768872240.1264648
1768872240134.277,1328.2051282051282,,1,2,1768872240.134277
1768872240142.0898,1322.3443223443223,,1,2,1768872240.1420898
1768872240149.9023,1315.7509157509155,,1,2,1768872240.1499023
1768872240157.7148,1318.6813186813183,,1,2,1768872240.1577148
1768872240165.527,1320.14652014652,,1,2,1768872240.165527
1768872240173.3398,1320.8791208791208,,1,2,1768872240.1733398
1768872240181.1523,1320.14652014652,,1,2,1768872240.1811523
1768872240188.9648,1323.076923076923,,1,2,1768872240.1889648
1768872240196.777,1327.4725274725274,,1,2,1768872240.196777
1768872240204.5898,1331.135531135531,,1,2,1768872240.2045898
1768872240212.4023,1335.5311355311355,,1,2,1768872240.2124023
1768872240220.2148,1340.6593406593406,,1,2,1768872240.2202148
1768872240228.027,1345.054945054945,,1,2,1768872240.228027
1768872240235.8398,1347.985347985348,,1,2,1768872240.2358398
1768872240243.6523,1349.4505494505493,,1,2,1768872240.2436523
1768872240251.4648,1348.7179487179487,,1,2,1768872240.2514648
1768872240259.277,1347.985347985348,,1,2,1768872240.259277
1768872240267.0898,1347.2527472527472,,1,2,1768872240.2670898
1768872240274.9023,1347.985347985348,,1,2,1768872240.2749023
1768872240282.7148,1346.5201465201465,,1,2,1768872240.2827148
1768872240290.527,1345.7875457875457,,1,2,1768872240.290527
1768872240298.3398,1343.5897435897434,,1,2,1768872240.2983398
1768872240306.1523,1339.92673992674,,1,2,1768872240.3061523
1768872240313.9648,1339.194139194139,,1,2,1768872240.3139648
1768872240321.777,1342.857142857143,,1,2,1768872240.321777
1768872240329.5898,1346.5201465201465,,1,2,1768872240.3295898
1768872240337.4023,1350.18315018315,,1,2,1768872240.3374023
1768872240345.2148,1354.5787545787546,,1,2,1768872240.3452148
1768872240353.027,1356.7765567765566,,1,2,1768872240.353027
1768872240360.8398,1358.241758241758,,1,2,1768872240.3608398
1768872240368.6523,1363.3699633699632,,1,2,1768872240.3686523
1768872240376.4648,1362.6373626373625,,1,2,1768872240.3764648
1768872240384.277,1358.241758241758,,1,2,1768872240.384277
1768872240392.0898,1352.3809523809523,,1,2,1768872240.3920898
1768872240399.9023,1347.2527472527472,,1,2,1768872240.3999023
1768872240407.7148,1339.194139194139,,1,2,1768872240.4077148
1768872240415.527,1330.4029304029302,,1,2,1768872240.415527
1768872240423.3398,1325.2747252747251,,1,2,1768872240.4233398
1768872240431.1523,1322.3443223443223,,1,2,1768872240.4311523
1768872240438.9648,1318.6813186813183,,1,2,1768872240.4389648
1768872240446.777,1311.3553113553112,,1,2,1768872240.446777
1768872240454.5898,1302.5641025641023,,1,2,1768872240.4545898
1768872240462.4023,1298.168498168498,,1,2,1768872240.4624023
1768872240470.2148,1296.7032967032967,,1,2,1768872240.4702148
1768872240478.027,1295.2380952380952,,1,2,1768872240.478027
1768872240485.8398,1292.3076923076922,,1,2,1768872240.4858398
1768872240493.6523,1288.6446886446886,,1,2,1768872240.4936523
1768872240501.4648,1290.10989010989,,1,2,1768872240.5014648
1768872240509.277,1295.2380952380952,,1,2,1768872240.509277
1768872240517.0898,1298.168498168498,,1,2,1768872240.5170898
1768872240524.9023,1303.2967032967033,,1,2,1768872240.5249023
1768872240532.7148,1310.6227106227104,,1,2,1768872240.5327148
1768872240540.527,1312.087912087912,,1,2,1768872240.540527
1768872240548.3398,1309.1575091575091,,1,2,1768872240.5483398
1768872240556.1523,1307.6923076923076,,1,2,1768872240.5561523
1768872240563.9648,1303.2967032967033,,1,2,1768872240.5639648
1768872240571.777,1297.4358974358977,,1,2,1768872240.571777
1768872240579.5898,1296.7032967032967,,1,2,1768872240.5795898
1768872240587.4023,1295.2380952380952,,1,2,1768872240.5874023
1768872240595.2148,1293.7728937728937,,1,2,1768872240.5952148
1768872240603.027,1297.4358974358977,,1,2,1768872240.603027
1768872240610.8398,1301.098901098901,,1,2,1768872240.6108398
1768872240618.6523,1307.6923076923076,,1,2,1768872240.6186523
1768872240626.4648,1323.076923076923,,1,2,1768872240.6264648
1768872240634.277,1334.065934065934,,1,2,1768872240.634277
1768872240642.0898,1340.6593406593406,,1,2,1768872240.6420898
1768872240649.9023,1350.18315018315,,1,2,1768872240.6499023
1768872240657.7148,1355.311355311355,,1,2,1768872240.6577148
1768872240665.527,1353.8461538461538,,1,2,1768872240.665527
1768872240673.3398,1360.4395604395604,,1,2,1768872240.6733398
1768872240681.1523,1368.4981684981683,,1,2,1768872240.6811523
1768872240688.9648,1378.021978021978,,1,2,1768872240.6889648
1768872240696.777,1387.5457875457876,,1,2,1768872240.696777
1768872240704.5898,1386.8131868131868,,1,2,1768872240.7045898
1768872240712.4023,1389.7435897435896,,1,2,1768872240.7124023
1768872240720.2148,1387.5457875457876,,1,2,1768872240.7202148
1768872240728.027,1388.278388278388,,1,2,1768872240.728027
1768872240735.8398,1389.7435897435896,,1,2,1768872240.7358398
1768872240743.6523,1386.080586080586,,1,2,1768872240.7436523
1768872240751.4648,1386.080586080586,,1,2,1768872240.7514648
1768872240759.277,1380.2197802197802,,1,2,1768872240.759277
1768872240767.0898,1375.091575091575,,1,2,1768872240.7670898
1768872240774.9023,1369.230769230769,,1,2,1768872240.7749023
1768872240782.7148,1358.974358974359,,1,2,1768872240.7827148
1768872240790.527,1353.8461538461538,,1,2,1768872240.790527
1768872240798.3398,1343.5897435897434,,1,2,1768872240.7983398
1768872240806.1523,1337.7289377289376,,1,2,1768872240.8061523
1768872240813.9648,1332.6007326007325,,1,2,1768872240.8139648
1768872240821.777,1334.7985347985348,,1,2,1768872240.821777
1768872240829.5898,1334.065934065934,,1,2,1768872240.8295898
1768872240837.4023,1341.3919413919414,,1,2,1768872240.8374023
1768872240845.2148,1348.7179487179487,,1,2,1768872240.8452148
1768872240853.027,1361.904761904762,,1,2,1768872240.853027
1768872240860.8398,1369.230769230769,,1,2,1768872240.8608398
1768872240868.6523,1378.7545787545787,,1,2,1768872240.8686523
1768872240876.4648,1380.952380952381,,1,2,1768872240.8764648
1768872240884.277,1383.150183150183,,1,2,1768872240.884277
1768872240892.0898,1379.4871794871794,,1,2,1768872240.8920898
1768872240899.9023,1378.7545787545787,,1,2,1768872240.8999023
1768872240907.7148,1374.3589743589744,,1,2,1768872240.9077148
1768872240915.527,1370.6959706959706,,1,2,1768872240.915527
1768872240923.3398,1362.6373626373625,,1,2,1768872240.9233398
1768872240931.1523,1358.241758241758,,1,2,1768872240.9311523
1768872240938.9648,1353.113553113553,,1,2,1768872240.9389648
1768872240946.777,1352.3809523809523,,1,2,1768872240.946777
1768872240954.5898,1350.9157509157508,,1,2,1768872240.9545898
1768872240962.4023,1350.9157509157508,,1,2,1768872240.9624023
1768872240970.2148,1347.985347985348,,0,-1,1768872240.9702148
1768872240978.027,1345.054945054945,,0,-1,1768872240.978027
1768872240985.8398,1338.4615384615383,,0,-1,1768872240.9858398
1768872240993.6523,1337.7289377289376,,0,-1,1768872240.9936523
1768872241001.4648,1333.3333333333333,,0,-1,1768872241.0014648
1768872241009.277,1334.7985347985348,,0,-1,1768872241.009277
1768872241017.0898,1338.4615384615383,,0,-1,1768872241.0170898
1768872241024.9023,1340.6593406593406,,0,-1,1768872241.0249023
1768872241032.7148,1338.4615384615383,,0,-1,1768872241.0327148
1768872241040.527,1339.194139194139,,0,-1,1768872241.040527
1768872241048.3398,1340.6593406593406,,0,-1,1768872241.0483398
1768872241056.1523,1339.194139194139,,0,-1,1768872241.0561523
1768872241063.9648,1334.065934065934,,0,-1,1768872241.0639648
1768872241071.777,1331.8681318681315,,0,-1,1768872241.071777
1768872241079.5898,1325.2747252747251,,0,-1,1768872241.0795898
1768872241087.4023,1317.216117216117,,0,-1,1768872241.0874023
1768872241095.2148,1312.087912087912,,0,-1,1768872241.0952148
1768872241103.027,1303.2967032967033,,0,-1,1768872241.103027
1768872241110.8398,1300.3663003663005,,0,-1,1768872241.1108398
1768872241118.6523,1300.3663003663005,,0,-1,1768872241.1186523
1768872241126.4648,1301.098901098901,,0,-1,1768872241.1264648
1768872241134.277,1306.9597069597069,,0,-1,1768872241.134277
1768872241142.0898,1321.6117216117216,,0,-1,1768872241.1420898
1768872241149.9023,1330.4029304029302,,0,-1,1768872241.1499023
1768872241157.7148,1342.124542124542,,0,-1,1768872241.1577148
1768872241165.527,1349.4505494505493,,0,-1,1768872241.165527
1768872241173.3398,1356.7765567765566,,0,-1,1768872241.1733398
1768872241181.1523,1364.102564102564,,0,-1,1768872241.1811523
1768872241188.9648,1368.4981684981683,,0,-1,1768872241.1889648
1768872241196.777,1370.6959706959706,,0,-1,1768872241.196777
1768872241204.5898,1372.161172161172,,0,-1,1768872241.2045898
1768872241212.4023,1372.161172161172,,0,-1,1768872241.2124023
1768872241220.2148,1377.2893772893772,,0,-1,1768872241.2202148
1768872241228.027,1385.3479853479853,,0,-1,1768872241.228027
1768872241235.8398,1394.139194139194,,0,-1,1768872241.2358398
1768872241243.6523,1402.197802197802,,0,-1,1768872241.2436523
1768872241251.4648,1403.6630036630036,,0,-1,1768872241.2514648
1768872241259.277,1400.0,,0,-1,1768872241.259277
1768872241267.0898,1397.8021978021975,,0,-1,1768872241.2670898
1768872241274.9023,1394.139194139194,,0,-1,1768872241.2749023
1768872241282.7148,1384.6153846153843,,0,-1,1768872241.2827148
1768872241290.527,1372.8937728937728,,0,-1,1768872241.290527
1768872241298.3398,1361.1721611721612,,0,-1,1768872241.2983398
1768872241306.1523,1350.9157509157508,,0,-1,1768872241.3061523
1768872241313.9648,1343.5897435897434,,0,-1,1768872241.3139648
1768872241321.777,1337.7289377289376,,0,-1,1768872241.321777
1768872241329.5898,1333.3333333333333,,0,-1,1768872241.3295898
1768872241337.4023,1323.8095238095236,,0,-1,1768872241.3374023
1768872241345.2148,1309.89010989011,,0,-1,1768872241.3452148
1768872241353.027,1295.2380952380952,,0,-1,1768872241.353027
1768872241360.8398,1281.3186813186812,,0,-1,1768872241.3608398
1768872241368.6523,1273.992673992674,,0,-1,1768872241.3686523
1768872241376.4648,1269.5970695970695,,0,-1,1768872241.3764648
1768872241384.277,1268.131868131868,,0,-1,1768872241.384277
1768872241392.0898,1265.9340659340658,,0,-1,1768872241.3920898
1768872241399.9023,1264.4688644688645,,0,-1,1768872241.3999023
1768872241407.7148,1265.2014652014652,,0,-1,1768872241.4077148
1768872241415.527,1265.2014652014652,,0,-1,1768872241.415527
1768872241423.3398,1265.2014652014652,,0,-1,1768872241.4233398
1768872241431.1523,1265.9340659340658,,0,-1,1768872241.4311523
1768872241438.9648,1264.4688644688645,,0,-1,1768872241.4389648
1768872241446.777,1260.805860805861,,0,-1,1768872241.446777
1768872241454.5898,1257.875457875458,,0,-1,1768872241.4545898
1768872241462.4023,1257.142857142857,,0,-1,1768872241.4624023
1768872241470.2148,1258.6080586080586,,0,-1,1768872241.4702148
1768872241478.027,1264.4688644688645,,0,-1,1768872241.478027
1768872241485.8398,1272.5274725274724,,0,-1,1768872241.4858398
1768872241493.6523,1281.3186813186812,,0,-1,1768872241.4936523
1768872241501.4648,1288.6446886446886,,0,-1,1768872241.5014648
1768872241509.277,1295.2380952380952,,0,-1,1768872241.509277
1768872241517.0898,1298.168498168498,,0,-1,1768872241.5170898
1768872241524.9023,1299.6336996336995,,0,-1,1768872241.5249023
1768872241532.7148,1301.098901098901,,0,-1,1768872241.5327148
1768872241540.527,1300.3663003663005,,0,-1,1768872241.540527
1768872241548.3398,1298.168498168498,,0,-1,1768872241.5483398
1768872241556.1523,1291.5750915750914,,0,-1,1768872241.5561523
1768872241563.9648,1277.6556776556777,,0,-1,1768872241.5639648
1768872241571.777,1265.9340659340658,,0,-1,1768872241.571777
1768872241579.5898,1260.07326007326,,0,-1,1768872241.5795898
1768872241587.4023,1254.9450549450548,,0,-1,1768872241.5874023
1768872241595.2148,1252.014652014652,,0,-1,1768872241.5952148
1768872241603.027,1249.084249084249,,0,-1,1768872241.603027
1768872241610.8398,1244.688644688645,,0,-1,1768872241.6108398
1768872241618.6523,1240.29304029304,,0,-1,1768872241.6186523
1768872241626.4648,1234.4322344322345,,0,-1,1768872241.6264648
1768872241634.277,1226.3736263736264,,0,-1,1768872241.634277
1768872241642.0898,1222.7106227106226,,0,-1,1768872241.6420898
1768872241649.9023,1220.5128205128203,,0,-1,1768872241.6499023
1768872241657.7148,1219.047619047619,,0,-1,1768872241.6577148
1768872241665.527,1217.5824175824175,,0,-1,1768872241.665527
1768872241673.3398,1218.3150183150185,,0,-1,1768872241.6733398
1768872241681.1523,1219.7802197802198,,0,-1,1768872241.6811523
1768872241688.9648,1226.3736263736264,,0,-1,1768872241.6889648
1768872241696.777,1230.7692307692307,,0,-1,1768872241.696777
1768872241704.5898,1239.5604395604396,,0,-1,1768872241.7045898
1768872241712.4023,1254.212454212454,,0,-1,1768872241.7124023
1768872241720.2148,1276.190476190476,,0,-1,1768872241.7202148
1768872241728.027,1301.098901098901,,0,-1,1768872241.728027
1768872241735.8398,1325.2747252747251,,0,-1,1768872241.7358398
1768872241743.6523,1347.2527472527472,,0,-1,1768872241.7436523
1768872241751.4648,1369.230769230769,,0,-1,1768872241.7514648
1768872241759.277,1386.8131868131868,,0,-1,1768872241.759277
1768872241767.0898,1400.7326007326003,,0,-1,1768872241.7670898
1768872241774.9023,1410.989010989011,,0,-1,1768872241.7749023
1768872241782.7148,1420.5128205128203,,0,-1,1768872241.7827148
1768872241790.527,1431.5018315018317,,0,-1,1768872241.790527
1768872241798.3398,1442.4908424908424,,0,-1,1768872241.7983398
1768872241806.1523,1454.212454212454,,0,-1,1768872241.8061523
1768872241813.9648,1465.9340659340658,,0,-1,1768872241.8139648
1768872241821.777,1476.190476190476,,0,-1,1768872241.821777
1768872241829.5898,1484.2490842490845,,0,-1,1768872241.8295898
1768872241837.4023,1490.8424908424906,,0,-1,1768872241.8374023
1768872241845.2148,1497.4358974358972,,0,-1,1768872241.8452148
1768872241853.027,1498.168498168498,,0,-1,1768872241.853027
1768872241860.8398,1496.7032967032967,,0,-1,1768872241.8608398
1768872241868.6523,1496.7032967032967,,0,-1,1768872241.8686523
1768872241876.4648,1493.7728937728937,,0,-1,1768872241.8764648
1768872241884.277,1488.6446886446886,,0,-1,1768872241.884277
1768872241892.0898,1478.3882783882782,,0,-1,1768872241.8920898
1768872241899.9023,1468.8644688644688,,0,-1,1768872241.8999023
1768872241907.7148,1460.07326007326,,0,-1,1768872241.9077148
1768872241915.527,1449.8168498168498,,0,-1,1768872241.915527
1768872241923.3398,1436.6300366300366,,1,3,1768872241.9233398
1768872241931.1523,1424.9084249084249,,1,3,1768872241.9311523
1768872241938.9648,1416.8498168498168,,1,3,1768872241.9389648
1768872241946.777,1411.7216117216117,,1,3,1768872241.946777
1768872241954.5898,1408.058608058608,,1,3,1768872241.9545898
1768872241962.4023,1405.128205128205,,1,3,1768872241.9624023
1768872241970.2148,1408.058608058608,,1,3,1768872241.9702148
1768872241978.027,1414.6520146520145,,1,3,1768872241.978027
1768872241985.8398,1418.3150183150185,,1,3,1768872241.9858398
1768872241993.6523,1424.175824175824,,1,3,1768872241.9936523
1768872242001.4648,1431.5018315018317,,1,3,1768872242.0014648
1768872242009.277,1437.362637362637,,1,3,1768872242.009277
1768872242017.0898,1441.0256410256409,,1,3,1768872242.0170898
1768872242024.9023,1442.4908424908424,,1,3,1768872242.0249023
1768872242032.7148,1444.688644688645,,1,3,1768872242.0327148
1768872242040.527,1446.153846153846,,1,3,1768872242.040527
1768872242048.3398,1443.2234432234432,,1,3,1768872242.0483398
1768872242056.1523,1436.6300366300366,,1,3,1768872242.0561523
1768872242063.9648,1434.4322344322345,,1,3,1768872242.0639648
1768872242071.777,1430.7692307692307,,1,3,1768872242.071777
1768872242079.5898,1428.5714285714284,,1,3,1768872242.0795898
1768872242087.4023,1432.2344322344322,,1,3,1768872242.0874023
1768872242095.2148,1436.6300366300366,,1,3,1768872242.0952148
1768872242103.027,1439.5604395604394,,1,3,1768872242.103027
1768872242110.8398,1444.688644688645,,1,3,1768872242.1108398
1768872242118.6523,1446.8864468864467,,1,3,1768872242.1186523
1768872242126.4648,1442.4908424908424,,1,3,1768872242.1264648
1768872242134.277,1437.362637362637,,1,3,1768872242.134277
1768872242142.0898,1434.4322344322345,,1,3,1768872242.1420898
1768872242149.9023,1430.7692307692307,,1,3,1768872242.1499023
1768872242157.7148,1432.2344322344322,,1,3,1768872242.1577148
1768872242165.527,1439.5604395604394,,1,3,1768872242.165527
1768872242173.3398,1443.2234432234432,,1,3,1768872242.1733398
1768872242181.1523,1444.688644688645,,1,3,1768872242.1811523
1768872242188.9648,1450.5494505494505,,1,3,1768872242.1889648
1768872242196.777,1460.07326007326,,1,3,1768872242.196777
1768872242204.5898,1469.5970695970695,,1,3,1768872242.2045898
1768872242212.4023,1471.7948717948716,,1,3,1768872242.2124023
1768872242220.2148,1470.3296703296703,,1,3,1768872242.2202148
1768872242228.027,1468.131868131868,,1,3,1768872242.228027
1768872242235.8398,1466.6666666666663,,1,3,1768872242.2358398
1768872242243.6523,1462.2710622710622,,1,3,1768872242.2436523
1768872242251.4648,1457.875457875458,,1,3,1768872242.2514648
1768872242259.277,1460.07326007326,,1,3,1768872242.259277
1768872242267.0898,1463.003663003663,,1,3,1768872242.2670898
1768872242274.9023,1473.260073260073,,1,3,1768872242.2749023
1768872242282.7148,1490.8424908424906,,1,3,1768872242.2827148
1768872242290.527,1504.7619047619046,,1,3,1768872242.290527
1768872242298.3398,1515.7509157509155,,1,3,1768872242.2983398
1768872242306.1523,1528.2051282051282,,1,3,1768872242.3061523
1768872242313.9648,1534.7985347985348,,1,3,1768872242.3139648
1768872242321.777,1544.3223443223442,,1,3,1768872242.321777
1768872242329.5898,1555.311355311355,,1,3,1768872242.3295898
1768872242337.4023,1561.1721611721612,,1,3,1768872242.3374023
1768872242345.2148,1571.428571428571,,1,3,1768872242.3452148
1768872242353.027,1575.8241758241757,,1,3,1768872242.353027
1768872242360.8398,1582.4175824175825,,1,3,1768872242.3608398
1768872242368.6523,1588.278388278388,,1,3,1768872242.3686523
1768872242376.4648,1585.3479853479853,,1,3,1768872242.3764648
1768872242384.277,1586.8131868131868,,1,3,1768872242.384277
1768872242392.0898,1583.8827838827838,,1,3,1768872242.3920898
1768872242399.9023,1582.4175824175825,,1,3,1768872242.3999023
1768872242407.7148,1583.8827838827838,,1,3,1768872242.4077148
1768872242415.527,1581.6849816849815,,1,3,1768872242.415527
1768872242423.3398,1580.9523809523807,,1,3,1768872242.4233398
1768872242431.1523,1578.021978021978,,1,3,1768872242.4311523
1768872242438.9648,1567.7655677655678,,1,3,1768872242.4389648
1768872242446.777,1561.9047619047617,,1,3,1768872242.446777
1768872242454.5898,1550.18315018315,,1,3,1768872242.4545898
1768872242462.4023,1541.3919413919414,,1,3,1768872242.4624023
1768872242470.2148,1527.4725274725274,,1,3,1768872242.4702148
1768872242478.027,1518.6813186813183,,1,3,1768872242.478027
1768872242485.8398,1502.5641025641023,,1,3,1768872242.4858398
1768872242493.6523,1493.040293040293,,1,3,1768872242.4936523
1768872242501.4648,1484.9816849816848,,1,3,1768872242.5014648
1768872242509.277,1477.6556776556777,,1,3,1768872242.509277
1768872242517.0898,1473.992673992674,,1,3,1768872242.5170898
1768872242524.9023,1469.5970695970695,,1,3,1768872242.5249023
1768872242532.7148,1473.260073260073,,1,3,1768872242.5327148
1768872242540.527,1475.4578754578754,,1,3,1768872242.540527
1768872242548.3398,1484.2490842490845,,1,3,1768872242.5483398
1768872242556.1523,1488.6446886446886,,1,3,1768872242.5561523
1768872242563.9648,1494.5054945054944,,1,3,1768872242.5639648
1768872242571.777,1496.7032967032967,,1,3,1768872242.571777
1768872242579.5898,1495.2380952380952,,1,3,1768872242.5795898
1768872242587.4023,1498.168498168498,,1,3,1768872242.5874023
1768872242595.2148,1492.3076923076922,,1,3,1768872242.5952148
1768872242603.027,1487.179487179487,,1,3,1768872242.603027
1768872242610.8398,1484.2490842490845,,1,3,1768872242.6108398
1768872242618.6523,1475.4578754578754,,1,3,1768872242.6186523
1768872242626.4648,1471.062271062271,,1,3,1768872242.6264648
1768872242634.277,1466.6666666666663,,1,3,1768872242.634277
1768872242642.0898,1462.2710622710622,,1,3,1768872242.6420898
1768872242649.9023,1463.7362637362637,,1,3,1768872242.6499023
1768872242657.7148,1462.2710622710622,,1,3,1768872242.6577148
1768872242665.527,1457.875457875458,,1,3,1768872242.665527
1768872242673.3398,1457.875457875458,,1,3,1768872242.6733398
1768872242681.1523,1452.7472527472526,,1,3,1768872242.6811523
1768872242688.9648,1448.3516483516482,,1,3,1768872242.6889648
1768872242696.777,1443.956043956044,,1,3,1768872242.696777
1768872242704.5898,1433.6996336996335,,1,3,1768872242.7045898
1768872242712.4023,1427.106227106227,,1,3,1768872242.7124023
1768872242720.2148,1417.5824175824175,,1,3,1768872242.7202148
1768872242728.027,1416.8498168498168,,1,3,1768872242.728027
1768872242735.8398,1410.989010989011,,1,3,1768872242.7358398
1768872242743.6523,1413.9194139194135,,1,3,1768872242.7436523
1768872242751.4648,1410.2564102564102,,1,3,1768872242.7514648
1768872242759.277,1408.058608058608,,1,3,1768872242.759277
1768872242767.0898,1403.6630036630036,,1,3,1768872242.7670898
1768872242774.9023,1398.5347985347985,,1,3,1768872242.7749023
1768872242782.7148,1396.3369963369962,,1,3,1768872242.7827148
1768872242790.527,1389.7435897435896,,1,3,1768872242.790527
1768872242798.3398,1389.0109890109889,,1,3,1768872242.7983398
1768872242806.1523,1389.7435897435896,,1,3,1768872242.8061523
1768872242813.9648,1394.8717948717947,,1,3,1768872242.8139648
1768872242821.777,1406.5934065934066,,1,3,1768872242.821777
1768872242829.5898,1416.117216117216,,1,3,1768872242.8295898
1768872242837.4023,1428.5714285714284,,1,3,1768872242.8374023
1768872242845.2148,1441.7582417582416,,1,3,1768872242.8452148
1768872242853.027,1461.5384615384614,,1,3,1768872242.853027
1768872242860.8398,1487.179487179487,,1,3,1768872242.8608398
1768872242868.6523,1516.4835164835165,,1,3,1768872242.8686523
1768872242876.4648,1542.124542124542,,1,3,1768872242.8764648
1768872242884.277,1564.102564102564,,0,-1,1768872242.884277
1768872242892.0898,1586.8131868131868,,0,-1,1768872242.8920898
1768872242899.9023,1606.5934065934066,,0,-1,1768872242.8999023
1768872242907.7148,1620.5128205128203,,0,-1,1768872242.9077148
1768872242915.527,1631.5018315018317,,0,-1,1768872242.915527
1768872242923.3398,1638.8278388278386,,0,-1,1768872242.9233398
1768872242931.1523,1643.2234432234432,,0,-1,1768872242.9311523
1768872242938.9648,1641.0256410256409,,0,-1,1768872242.9389648
1768872242946.777,1634.4322344322345,,0,-1,1768872242.946777
1768872242954.5898,1627.106227106227,,0,-1,1768872242.9545898
1768872242962.4023,1620.5128205128203,,0,-1,1768872242.9624023
1768872242970.2148,1616.117216117216,,0,-1,1768872242.9702148
1768872242978.027,1611.7216117216117,,0,-1,1768872242.978027
1768872242985.8398,1605.8608058608058,,0,-1,1768872242.9858398
1768872242993.6523,1598.5347985347985,,0,-1,1768872242.9936523
1768872243001.4648,1589.7435897435896,,0,-1,1768872243.0014648
1768872243009.277,1581.6849816849815,,0,-1,1768872243.009277
1768872243017.0898,1573.6263736263736,,0,-1,1768872243.0170898
1768872243024.9023,1566.3003663003662,,0,-1,1768872243.0249023
1768872243032.7148,1565.5677655677655,,0,-1,1768872243.0327148
1768872243040.527,1560.4395604395604,,0,-1,1768872243.040527
1768872243048.3398,1555.311355311355,,0,-1,1768872243.0483398
1768872243056.1523,1551.6483516483515,,0,-1,1768872243.0561523
1768872243063.9648,1545.7875457875457,,0,-1,1768872243.0639648
1768872243071.777,1537.7289377289376,,0,-1,1768872243.071777
1768872243079.5898,1535.5311355311355,,0,-1,1768872243.0795898
1768872243087.4023,1536.263736263736,,0,-1,1768872243.0874023
1768872243095.2148,1533.3333333333333,,0,-1,1768872243.0952148
1768872243103.027,1530.4029304029302,,0,-1,1768872243.103027
1768872243110.8398,1530.4029304029302,,0,-1,1768872243.1108398
1768872243118.6523,1531.8681318681315,,0,-1,1768872243.1186523
1768872243126.4648,1533.3333333333333,,0,-1,1768872243.1264648
1768872243134.277,1537.7289377289376,,0,-1,1768872243.134277
1768872243142.0898,1543.5897435897434,,0,-1,1768872243.1420898
1768872243149.9023,1552.3809523809523,,0,-1,1768872243.1499023
1768872243157.7148,1557.5091575091574,,0,-1,1768872243.1577148
1768872243165.527,1558.974358974359,,0,-1,1768872243.165527
1768872243173.3398,1557.5091575091574,,0,-1,1768872243.1733398
1768872243181.1523,1556.043956043956,,0,-1,1768872243.1811523
1768872243188.9648,1555.311355311355,,0,-1,1768872243.1889648
1768872243196.777,1549.4505494505493,,0,-1,1768872243.196777
1768872243204.5898,1545.7875457875457,,0,-1,1768872243.2045898
1768872243212.4023,1541.3919413919414,,0,-1,1768872243.2124023
1768872243220.2148,1537.7289377289376,,0,-1,1768872243.2202148
1768872243228.027,1531.135531135531,,0,-1,1768872243.228027
1768872243235.8398,1522.3443223443223,,0,-1,1768872243.2358398
1768872243243.6523,1513.5531135531137,,0,-1,1768872243.2436523
1768872243251.4648,1506.9597069597069,,0,-1,1768872243.2514648
1768872243259.277,1502.5641025641023,,0,-1,1768872243.259277
1768872243267.0898,1495.970695970696,,0,-1,1768872243.2670898
1768872243274.9023,1488.6446886446886,,0,-1,1768872243.2749023
1768872243282.7148,1481.3186813186812,,0,-1,1768872243.2827148
1768872243290.527,1471.7948717948716,,0,-1,1768872243.290527
1768872243298.3398,1465.201465201465,,0,-1,1768872243.2983398
1768872243306.1523,1461.5384615384614,,0,-1,1768872243.3061523
1768872243313.9648,1458.6080586080584,,0,-1,1768872243.3139648
1768872243321.777,1454.9450549450548,,0,-1,1768872243.321777
1768872243329.5898,1449.8168498168498,,0,-1,1768872243.3295898
1768872243337.4023,1442.4908424908424,,0,-1,1768872243.3374023
1768872243345.2148,1435.8974358974358,,0,-1,1768872243.3452148
1768872243353.027,1432.9670329670328,,0,-1,1768872243.353027
1768872243360.8398,1432.2344322344322,,0,-1,1768872243.3608398
1768872243368.6523,1435.164835164835,,0,-1,1768872243.3686523
1768872243376.4648,1441.0256410256409,,0,-1,1768872243.3764648
1768872243384.277,1449.8168498168498,,0,-1,1768872243.384277
1768872243392.0898,1463.003663003663,,0,-1,1768872243.3920898
1768872243399.9023,1484.9816849816848,,0,-1,1768872243.3999023
1768872243407.7148,1511.3553113553112,,0,-1,1768872243.4077148
1768872243415.527,1541.3919413919414,,0,-1,1768872243.415527
1768872243423.3398,1571.428571428571,,0,-1,1768872243.4233398
1768872243431.1523,1600.7326007326003,,0,-1,1768872243.4311523
1768872243438.9648,1627.106227106227,,0,-1,1768872243.4389648
1768872243446.777,1650.5494505494505,,0,-1,1768872243.446777
1768872243454.5898,1674.7252747252746,,0,-1,1768872243.4545898
1768872243462.4023,1698.168498168498,,0,-1,1768872243.4624023
1768872243470.2148,1721.6117216117216,,0,-1,1768872243.4702148
1768872243478.027,1744.3223443223442,,0,-1,1768872243.478027
1768872243485.8398,1764.102564102564,,0,-1,1768872243.4858398
1768872243493.6523,1781.6849816849815,,0,-1,1768872243.4936523
1768872243501.4648,1794.8717948717947,,0,-1,1768872243.5014648
1768872243509.277,1804.3956043956043,,0,-1,1768872243.509277
1768872243517.0898,1810.989010989011,,0,-1,1768872243.5170898
1768872243524.9023,1812.4542124542124,,0,-1,1768872243.5249023
1768872243532.7148,1811.721611721612,,0,-1,1768872243.5327148
1768872243540.527,1808.7912087912089,,0,-1,1768872243.540527
1768872243548.3398,1806.5934065934064,,0,-1,1768872243.5483398
1768872243556.1523,1805.128205128205,,0,-1,1768872243.5561523
1768872243563.9648,1804.3956043956043,,0,-1,1768872243.5639648
1768872243571.777,1799.9999999999998,,0,-1,1768872243.571777
1768872243579.5898,1794.139194139194,,0,-1,1768872243.5795898
1768872243587.4023,1784.6153846153843,,0,-1,1768872243.5874023
1768872243595.2148,1772.161172161172,,0,-1,1768872243.5952148
1768872243603.027,1758.241758241758,,0,-1,1768872243.603027
1768872243610.8398,1742.857142857143,,0,-1,1768872243.6108398
1768872243618.6523,1726.007326007326,,0,-1,1768872243.6186523
1768872243626.4648,1711.3553113553112,,0,-1,1768872243.6264648
1768872243634.277,1697.4358974358972,,0,-1,1768872243.634277
1768872243642.0898,1685.7142857142856,,0,-1,1768872243.6420898
1768872243649.9023,1676.923076923077,,0,-1,1768872243.6499023
1768872243657.7148,1668.131868131868,,0,-1,1768872243.6577148
1768872243665.527,1657.875457875458,,0,-1,1768872243.665527
1768872243673.3398,1649.8168498168498,,0,-1,1768872243.6733398
1768872243681.1523,1646.153846153846,,0,-1,1768872243.6811523
1768872243688.9648,1645.4212454212452,,0,-1,1768872243.6889648
1768872243696.777,1647.6190476190477,,0,-1,1768872243.696777
1768872243704.5898,1649.8168498168498,,0,-1,1768872243.7045898
1768872243712.4023,1655.6776556776556,,0,-1,1768872243.7124023
1768872243720.2148,1657.875457875458,,0,-1,1768872243.7202148
1768872243728.027,1656.4102564102564,,0,-1,1768872243.728027
1768872243735.8398,1652.0146520146518,,0,-1,1768872243.7358398
1768872243743.6523,1641.0256410256409,,0,-1,1768872243.7436523
1768872243751.4648,1625.6410256410256,,0,-1,1768872243.7514648
1768872243759.277,1611.7216117216117,,0,-1,1768872243.759277
1768872243767.0898,1601.4652014652013,,0,-1,1768872243.7670898
1768872243774.9023,1595.6043956043954,,0,-1,1768872243.7749023
1768872243782.7148,1590.4761904761904,,0,-1,1768872243.7827148
1768872243790.527,1590.4761904761904,,0,-1,1768872243.790527
1768872243798.3398,1589.7435897435896,,0,-1,1768872243.7983398
1768872243806.1523,1584.6153846153843,,0,-1,1768872243.8061523
1768872243813.9648,1580.2197802197802,,0,-1,1768872243.8139648
1768872243821.777,1578.021978021978,,0,-1,1768872243.821777
1768872243829.5898,1578.7545787545787,,0,-1,1768872243.8295898
1768872243837.4023,1578.021978021978,,0,-1,1768872243.8374023
1768872243845.2148,1578.021978021978,,0,-1,1768872243.8452148
1768872243853.027,1576.5567765567764,,0,-1,1768872243.853027
1768872243860.8398,1575.8241758241757,,0,-1,1768872243.8608398
1768872243868.6523,1569.9633699633698,,0,-1,1768872243.8686523
1768872243876.4648,1561.1721611721612,,0,-1,1768872243.8764648
1768872243884.277,1553.8461538461538,,0,-1,1768872243.884277
1768872243892.0898,1545.054945054945,,0,-1,1768872243.8920898
1768872243899.9023,1534.065934065934,,0,-1,1768872243.8999023
1768872243907.7148,1526.739926739927,,0,-1,1768872243.9077148
1768872243915.527,1515.018315018315,,0,-1,1768872243.915527
1768872243923.3398,1499.6336996336995,,0,-1,1768872243.9233398
1768872243931.1523,1488.6446886446886,,0,-1,1768872243.9311523
1768872243938.9648,1484.2490842490845,,0,-1,1768872243.9389648
1768872243946.777,1485.7142857142856,,1,4,1768872243.946777
1768872243954.5898,1497.4358974358972,,1,4,1768872243.9545898
1768872243962.4023,1511.3553113553112,,1,4,1768872243.9624023
1768872243970.2148,1534.7985347985348,,1,4,1768872243.9702148
1768872243978.027,1564.102564102564,,1,4,1768872243.978027
1768872243985.8398,1595.6043956043954,,1,4,1768872243.9858398
1768872243993.6523,1635.164835164835,,1,4,1768872243.9936523
1768872244001.4648,1670.3296703296703,,1,4,1768872244.0014648
1768872244009.277,1704.7619047619046,,1,4,1768872244.009277
1768872244017.0898,1738.4615384615383,,1,4,1768872244.0170898
1768872244024.9023,1762.6373626373625,,1,4,1768872244.0249023
1768872244032.7148,1792.6739926739926,,1,4,1768872244.0327148
1768872244040.527,1819.78021978022,,1,4,1768872244.040527
1768872244048.3398,1844.688644688645,,1,4,1768872244.0483398
1768872244056.1523,1866.6666666666663,,1,4,1768872244.0561523
1768872244063.9648,1882.051282051282,,1,4,1768872244.0639648
1768872244071.777,1895.2380952380952,,1,4,1768872244.071777
1768872244079.5898,1896.7032967032965,,1,4,1768872244.0795898
1768872244087.4023,1898.168498168498,,1,4,1768872244.0874023
1768872244095.2148,1893.7728937728937,,1,4,1768872244.0952148
1768872244103.027,1892.307692307692,,1,4,1768872244.103027
1768872244110.8398,1883.5164835164835,,1,4,1768872244.1108398
1768872244118.6523,1873.260073260073,,1,4,1768872244.1186523
1768872244126.4648,1862.2710622710624,,1,4,1768872244.1264648
1768872244134.277,1849.8168498168495,,1,4,1768872244.134277
1768872244142.0898,1835.164835164835,,1,4,1768872244.1420898
1768872244149.9023,1823.4432234432236,,1,4,1768872244.1499023
1768872244157.7148,1808.7912087912089,,1,4,1768872244.1577148
1768872244165.527,1793.4065934065932,,1,4,1768872244.165527
1768872244173.3398,1780.2197802197802,,1,4,1768872244.1733398
1768872244181.1523,1760.4395604395604,,1,4,1768872244.1811523
1768872244188.9648,1745.7875457875457,,1,4,1768872244.1889648
1768872244196.777,1726.007326007326,,1,4,1768872244.196777
1768872244204.5898,1705.4945054945051,,1,4,1768872244.2045898
1768872244212.4023,1689.3772893772891,,1,4,1768872244.2124023
1768872244220.2148,1674.7252747252746,,1,4,1768872244.2202148
1768872244228.027,1665.201465201465,,1,4,1768872244.228027
1768872244235.8398,1652.7472527472526,,1,4,1768872244.2358398
1768872244243.6523,1641.7582417582416,,1,4,1768872244.2436523
1768872244251.4648,1635.164835164835,,1,4,1768872244.2514648
1768872244259.277,1627.106227106227,,1,4,1768872244.259277
1768872244267.0898,1626.3736263736262,,1,4,1768872244.2670898
1768872244274.9023,1623.4432234432234,,1,4,1768872244.2749023
1768872244282.7148,1627.106227106227,,1,4,1768872244.2827148
1768872244290.527,1627.106227106227,,1,4,1768872244.290527
1768872244298.3398,1629.3040293040292,,1,4,1768872244.2983398
1768872244306.1523,1624.175824175824,,1,4,1768872244.3061523
1768872244313.9648,1619.047619047619,,1,4,1768872244.3139648
1768872244321.777,1608.7912087912086,,1,4,1768872244.321777
1768872244329.5898,1608.058608058608,,1,4,1768872244.3295898
1768872244337.4023,1605.128205128205,,1,4,1768872244.3374023
1768872244345.2148,1604.3956043956043,,1,4,1768872244.3452148
1768872244353.027,1596.3369963369962,,1,4,1768872244.353027
1768872244360.8398,1590.4761904761904,,1,4,1768872244.3608398
1768872244368.6523,1580.2197802197802,,1,4,1768872244.3686523
1768872244376.4648,1569.230769230769,,1,4,1768872244.3764648
1768872244384.277,1562.6373626373625,,1,4,1768872244.384277
1768872244392.0898,1551.6483516483515,,1,4,1768872244.3920898
1768872244399.9023,1539.92673992674,,1,4,1768872244.3999023
1768872244407.7148,1523.0769230769229,,1,4,1768872244.4077148
1768872244415.527,1503.2967032967033,,1,4,1768872244.415527
1768872244423.3398,1487.179487179487,,1,4,1768872244.4233398
1768872244431.1523,1476.923076923077,,1,4,1768872244.4311523
1768872244438.9648,1463.7362637362637,,1,4,1768872244.4389648
1768872244446.777,1454.9450549450548,,1,4,1768872244.446777
1768872244454.5898,1451.2820512820513,,1,4,1768872244.4545898
1768872244462.4023,1447.6190476190477,,1,4,1768872244.4624023
1768872244470.2148,1449.084249084249,,1,4,1768872244.4702148
1768872244478.027,1457.875457875458,,1,4,1768872244.478027
1768872244485.8398,1459.3406593406592,,1,4,1768872244.4858398
1768872244493.6523,1463.003663003663,,1,4,1768872244.4936523
1768872244501.4648,1460.07326007326,,1,4,1768872244.5014648
1768872244509.277,1453.479853479853,,1,4,1768872244.509277
1768872244517.0898,1446.8864468864467,,1,4,1768872244.5170898
1768872244524.9023,1435.164835164835,,1,4,1768872244.5249023
1768872244532.7148,1427.106227106227,,1,4,1768872244.5327148
1768872244540.527,1425.6410256410256,,1,4,1768872244.540527
1768872244548.3398,1433.6996336996335,,1,4,1768872244.5483398
1768872244556.1523,1447.6190476190477,,1,4,1768872244.5561523
1768872244563.9648,1468.131868131868,,1,4,1768872244.5639648
1768872244571.777,1498.9010989010987,,1,4,1768872244.571777
1768872244579.5898,1533.3333333333333,,1,4,1768872244.5795898
1768872244587.4023,1575.8241758241757,,1,4,1768872244.5874023
1768872244595.2148,1616.117216117216,,1,4,1768872244.5952148
1768872244603.027,1658.6080586080584,,1,4,1768872244.603027
1768872244610.8398,1701.8315018315018,,1,4,1768872244.6108398
1768872244618.6523,1736.9963369963368,,1,4,1768872244.6186523
1768872244626.4648,1766.3003663003662,,1,4,1768872244.6264648
1768872244634.277,1786.080586080586,,1,4,1768872244.634277
1768872244642.0898,1791.941391941392,,1,4,1768872244.6420898
1768872244649.9023,1796.3369963369962,,1,4,1768872244.6499023
1768872244657.7148,1799.2673992673992,,1,4,1768872244.6577148
1768872244665.527,1797.8021978021975,,1,4,1768872244.665527
1768872244673.3398,1795.6043956043954,,1,4,1768872244.6733398
1768872244681.1523,1791.941391941392,,1,4,1768872244.6811523
1768872244688.9648,1779.4871794871794,,1,4,1768872244.6889648
1768872244696.777,1764.8351648351647,,1,4,1768872244.696777
1768872244704.5898,1751.6483516483515,,1,4,1768872244.7045898
1768872244712.4023,1740.6593406593406,,1,4,1768872244.7124023
1768872244720.2148,1720.14652014652,,1,4,1768872244.7202148
1768872244728.027,1693.7728937728937,,1,4,1768872244.728027
1768872244735.8398,1667.3992673992673,,1,4,1768872244.7358398
1768872244743.6523,1644.688644688645,,1,4,1768872244.7436523
1768872244751.4648,1628.5714285714284,,1,4,1768872244.7514648
1768872244759.277,1610.2564102564102,,1,4,1768872244.759277
1768872244767.0898,1592.6739926739926,,1,4,1768872244.7670898
1768872244774.9023,1572.8937728937728,,1,4,1768872244.7749023
1768872244782.7148,1560.4395604395604,,1,4,1768872244.7827148
1768872244790.527,1552.3809523809523,,1,4,1768872244.790527
1768872244798.3398,1550.9157509157508,,1,4,1768872244.7983398
1768872244806.1523,1550.9157509157508,,0,-1,1768872244.8061523
1768872244813.9648,1549.4505494505493,,0,-1,1768872244.8139648
1768872244821.777,1551.6483516483515,,0,-1,1768872244.821777
1768872244829.5898,1552.3809523809523,,0,-1,1768872244.8295898
1768872244837.4023,1550.9157509157508,,0,-1,1768872244.8374023
1768872244845.2148,1549.4505494505493,,0,-1,1768872244.8452148
1768872244853.027,1546.5201465201465,,0,-1,1768872244.853027
1768872244860.8398,1542.857142857143,,0,-1,1768872244.8608398
1768872244868.6523,1536.9963369963368,,0,-1,1768872244.8686523
1768872244876.4648,1535.5311355311355,,0,-1,1768872244.8764648
1768872244884.277,1531.8681318681315,,0,-1,1768872244.884277
1768872244892.0898,1528.2051282051282,,0,-1,1768872244.8920898
1768872244899.9023,1525.2747252747251,,0,-1,1768872244.8999023
1768872244907.7148,1520.8791208791208,,0,-1,1768872244.9077148
1768872244915.527,1517.9487179487178,,0,-1,1768872244.915527
1768872244923.3398,1517.216117216117,,0,-1,1768872244.9233398
1768872244931.1523,1514.2857142857142,,0,-1,1768872244.9311523
1768872244938.9648,1512.8205128205127,,0,-1,1768872244.9389648
1768872244946.777,1509.89010989011,,0,-1,1768872244.946777
1768872244954.5898,1501.098901098901,,0,-1,1768872244.9545898
1768872244962.4023,1488.6446886446886,,0,-1,1768872244.9624023
1768872244970.2148,1478.3882783882782,,0,-1,1768872244.9702148
1768872244978.027,1470.3296703296703,,0,-1,1768872244.978027
1768872244985.8398,1461.5384615384614,,0,-1,1768872244.9858398
1768872244993.6523,1453.479853479853,,0,-1,1768872244.9936523
1768872245001.4648,1442.4908424908424,,0,-1,1768872245.0014648
1768872245009.277,1427.106227106227,,0,-1,1768872245.009277
1768872245017.0898,1416.8498168498168,,0,-1,1768872245.0170898
1768872245024.9023,1407.3260073260071,,0,-1,1768872245.0249023
1768872245032.7148,1398.5347985347985,,0,-1,1768872245.0327148
1768872245040.527,1390.4761904761904,,0,-1,1768872245.040527
1768872245048.3398,1381.6849816849815,,0,-1,1768872245.0483398
1768872245056.1523,1377.2893772893772,,0,-1,1768872245.0561523
1768872245063.9648,1376.5567765567764,,0,-1,1768872245.0639648
1768872245071.777,1377.2893772893772,,0,-1,1768872245.071777
1768872245079.5898,1378.7545787545787,,0,-1,1768872245.0795898
1768872245087.4023,1378.021978021978,,0,-1,1768872245.0874023
1768872245095.2148,1375.091575091575,,0,-1,1768872245.0952148
1768872245103.027,1370.6959706959706,,0,-1,1768872245.103027
1768872245110.8398,1365.5677655677655,,0,-1,1768872245.1108398
1768872245118.6523,1364.102564102564,,0,-1,1768872245.1186523
1768872245126.4648,1366.3003663003662,,0,-1,1768872245.1264648
1768872245134.277,1370.6959706959706,,0,-1,1768872245.134277
1768872245142.0898,1379.4871794871794,,0,-1,1768872245.1420898
1768872245149.9023,1394.8717948717947,,0,-1,1768872245.1499023
1768872245157.7148,1413.9194139194135,,0,-1,1768872245.1577148
1768872245165.527,1432.9670329670328,,0,-1,1768872245.165527
1768872245173.3398,1453.479853479853,,0,-1,1768872245.1733398
1768872245181.1523,1481.3186813186812,,0,-1,1768872245.1811523
1768872245188.9648,1512.8205128205127,,0,-1,1768872245.1889648
1768872245196.777,1544.3223443223442,,0,-1,1768872245.196777
1768872245204.5898,1571.428571428571,,0,-1,1768872245.2045898
1768872245212.4023,1592.6739926739926,,0,-1,1768872245.2124023
1768872245220.2148,1610.2564102564102,,0,-1,1768872245.2202148
1768872245228.027,1621.9780219780218,,0,-1,1768872245.228027
1768872245235.8398,1630.03663003663,,0,-1,1768872245.2358398
1768872245243.6523,1635.164835164835,,0,-1,1768872245.2436523
1768872245251.4648,1638.095238095238,,0,-1,1768872245.2514648
1768872245259.277,1641.0256410256409,,0,-1,1768872245.259277
1768872245267.0898,1638.8278388278386,,0,-1,1768872245.2670898
1768872245274.9023,1635.8974358974358,,0,-1,1768872245.2749023
1768872245282.7148,1635.164835164835,,0,-1,1768872245.2827148
1768872245290.527,1630.7692307692307,,0,-1,1768872245.290527
1768872245298.3398,1623.4432234432234,,0,-1,1768872245.2983398
1768872245306.1523,1616.117216117216,,0,-1,1768872245.3061523
1768872245313.9648,1607.3260073260071,,0,-1,1768872245.3139648
1768872245321.777,1598.5347985347985,,0,-1,1768872245.321777
1768872245329.5898,1586.8131868131868,,0,-1,1768872245.3295898
1768872245337.4023,1572.161172161172,,0,-1,1768872245.3374023
1768872245345.2148,1559.7069597069597,,0,-1,1768872245.3452148
1768872245353.027,1543.5897435897434,,0,-1,1768872245.353027
1768872245360.8398,1525.2747252747251,,0,-1,1768872245.3608398
1768872245368.6523,1508.4249084249084,,0,-1,1768872245.3686523
1768872245376.4648,1490.8424908424906,,0,-1,1768872245.3764648
1768872245384.277,1474.7252747252746,,0,-1,1768872245.384277
1768872245392.0898,1458.6080586080584,,0,-1,1768872245.3920898
1768872245399.9023,1446.8864468864467,,0,-1,1768872245.3999023
1768872245407.7148,1439.5604395604394,,0,-1,1768872245.4077148
1768872245415.527,1433.6996336996335,,0,-1,1768872245.415527
1768872245423.3398,1429.3040293040292,,0,-1,1768872245.4233398
1768872245431.1523,1426.3736263736262,,0,-1,1768872245.4311523
1768872245438.9648,1424.175824175824,,0,-1,1768872245.4389648
1768872245446.777,1422.7106227106226,,0,-1,1768872245.446777
1768872245454.5898,1419.047619047619,,0,-1,1768872245.4545898
1768872245462.4023,1415.3846153846152,,0,-1,1768872245.4624023
1768872245470.2148,1409.5238095238094,,0,-1,1768872245.4702148
1768872245478.027,1399.2673992673992,,0,-1,1768872245.478027
1768872245485.8398,1387.5457875457876,,0,-1,1768872245.4858398
1768872245493.6523,1375.8241758241757,,0,-1,1768872245.4936523
1768872245501.4648,1366.3003663003662,,0,-1,1768872245.5014648
1768872245509.277,1359.7069597069597,,0,-1,1768872245.509277
1768872245517.0898,1357.5091575091574,,0,-1,1768872245.5170898
1768872245524.9023,1358.241758241758,,0,-1,1768872245.5249023
1768872245532.7148,1357.5091575091574,,0,-1,1768872245.5327148
1768872245540.527,1361.1721611721612,,0,-1,1768872245.540527
1768872245548.3398,1360.4395604395604,,0,-1,1768872245.5483398
1768872245556.1523,1361.904761904762,,0,-1,1768872245.5561523
1768872245563.9648,1360.4395604395604,,0,-1,1768872245.5639648
1768872245571.777,1354.5787545787546,,0,-1,1768872245.571777
1768872245579.5898,1349.4505494505493,,0,-1,1768872245.5795898
1768872245587.4023,1347.985347985348,,0,-1,1768872245.5874023
1768872245595.2148,1345.7875457875457,,0,-1,1768872245.5952148
1768872245603.027,1340.6593406593406,,0,-1,1768872245.603027
1768872245610.8398,1331.8681318681315,,0,-1,1768872245.6108398
1768872245618.6523,1324.5421245421244,,0,-1,1768872245.6186523
1768872245626.4648,1316.4835164835165,,0,-1,1768872245.6264648
1768872245634.277,1309.1575091575091,,0,-1,1768872245.634277
1768872245642.0898,1304.7619047619046,,0,-1,1768872245.6420898
1768872245649.9023,1300.3663003663005,,0,-1,1768872245.6499023
1768872245657.7148,1293.040293040293,,0,-1,1768872245.6577148
1768872245665.527,1290.10989010989,,0,-1,1768872245.665527
1768872245673.3398,1283.5164835164835,,0,-1,1768872245.6733398
1768872245681.1523,1279.8534798534797,,0,-1,1768872245.6811523
1768872245688.9648,1273.260073260073,,0,-1,1768872245.6889648
1768872245696.777,1265.2014652014652,,0,-1,1768872245.696777
1768872245704.5898,1260.07326007326,,0,-1,1768872245.7045898
1768872245712.4023,1254.212454212454,,0,-1,1768872245.7124023
1768872245720.2148,1247.6190476190477,,0,-1,1768872245.7202148
1768872245728.027,1249.8168498168498,,0,-1,1768872245.728027
1768872245735.8398,1260.805860805861,,0,-1,1768872245.7358398
1768872245743.6523,1273.992673992674,,0,-1,1768872245.7436523
1768872245751.4648,1295.970695970696,,0,-1,1768872245.7514648
1768872245759.277,1317.9487179487178,,0,-1,1768872245.759277
1768872245767.0898,1345.7875457875457,,0,-1,1768872245.7670898
1768872245774.9023,1368.4981684981683,,0,-1,1768872245.7749023
1768872245782.7148,1394.139194139194,,0,-1,1768872245.7827148
1768872245790.527,1414.6520146520145,,0,-1,1768872245.790527
1768872245798.3398,1424.9084249084249,,0,-1,1768872245.7983398
1768872245806.1523,1435.164835164835,,0,-1,1768872245.8061523
1768872245813.9648,1446.153846153846,,0,-1,1768872245.8139648
1768872245821.777,1452.014652014652,,0,-1,1768872245.821777
1768872245829.5898,1460.07326007326,,0,-1,1768872245.8295898
1768872245837.4023,1468.131868131868,,1,5,1768872245.8374023
1768872245845.2148,1470.3296703296703,,1,5,1768872245.8452148
1768872245853.027,1475.4578754578754,,1,5,1768872245.853027
1768872245860.8398,1477.6556776556777,,1,5,1768872245.8608398
1768872245868.6523,1478.3882783882782,,1,5,1768872245.8686523
1768872245876.4648,1479.8534798534797,,1,5,1768872245.8764648
1768872245884.277,1471.7948717948716,,1,5,1768872245.884277
1768872245892.0898,1458.6080586080584,,1,5,1768872245.8920898
1768872245899.9023,1447.6190476190477,,1,5,1768872245.8999023
1768872245907.7148,1432.9670329670328,,1,5,1768872245.9077148
1768872245915.527,1423.4432234432234,,1,5,1768872245.915527
1768872245923.3398,1413.1868131868132,,1,5,1768872245.9233398
1768872245931.1523,1394.8717948717947,,1,5,1768872245.9311523
1768872245938.9648,1376.5567765567764,,1,5,1768872245.9389648
1768872245946.777,1356.043956043956,,1,5,1768872245.946777
1768872245954.5898,1342.857142857143,,1,5,1768872245.9545898
1768872245962.4023,1334.7985347985348,,1,5,1768872245.9624023
1768872245970.2148,1326.007326007326,,1,5,1768872245.9702148
1768872245978.027,1323.076923076923,,1,5,1768872245.978027
1768872245985.8398,1319.4139194139193,,1,5,1768872245.9858398
1768872245993.6523,1314.2857142857142,,1,5,1768872245.9936523
1768872246001.4648,1313.5531135531137,,1,5,1768872246.0014648
1768872246009.277,1315.018315018315,,1,5,1768872246.009277
1768872246017.0898,1315.7509157509155,,1,5,1768872246.0170898
1768872246024.9023,1320.14652014652,,1,5,1768872246.0249023
1768872246032.7148,1322.3443223443223,,1,5,1768872246.0327148
1768872246040.527,1326.739926739927,,1,5,1768872246.040527
1768872246048.3398,1322.3443223443223,,1,5,1768872246.0483398
1768872246056.1523,1315.018315018315,,1,5,1768872246.0561523
1768872246063.9648,1307.6923076923076,,1,5,1768872246.0639648
1768872246071.777,1298.168498168498,,1,5,1768872246.071777
1768872246079.5898,1295.2380952380952,,1,5,1768872246.0795898
1768872246087.4023,1288.6446886446886,,1,5,1768872246.0874023
1768872246095.2148,1282.7838827838827,,1,5,1768872246.0952148
1768872246103.027,1280.5860805860805,,1,5,1768872246.103027
1768872246110.8398,1275.4578754578754,,1,5,1768872246.1108398
1768872246118.6523,1276.923076923077,,1,5,1768872246.1186523
1768872246126.4648,1278.3882783882782,,1,5,1768872246.1264648
1768872246134.277,1279.120879120879,,1,5,1768872246.134277
1768872246142.0898,1281.3186813186812,,1,5,1768872246.1420898
1768872246149.9023,1277.6556776556777,,1,5,1768872246.1499023
1768872246157.7148,1278.3882783882782,,1,5,1768872246.1577148
1768872246165.527,1273.992673992674,,1,5,1768872246.165527
1768872246173.3398,1275.4578754578754,,1,5,1768872246.1733398
1768872246181.1523,1271.062271062271,,1,5,1768872246.1811523
1768872246188.9648,1271.7948717948716,,1,5,1768872246.1889648
1768872246196.777,1266.6666666666663,,1,5,1768872246.196777
1768872246204.5898,1265.9340659340658,,1,5,1768872246.2045898
1768872246212.4023,1260.805860805861,,1,5,1768872246.2124023
1768872246220.2148,1260.07326007326,,1,5,1768872246.2202148
1768872246228.027,1252.7472527472526,,1,5,1768872246.228027
1768872246235.8398,1249.084249084249,,1,5,1768872246.2358398
1768872246243.6523,1238.095238095238,,1,5,1768872246.2436523
1768872246251.4648,1230.03663003663,,1,5,1768872246.2514648
1768872246259.277,1219.7802197802198,,1,5,1768872246.259277
1768872246267.0898,1216.117216117216,,1,5,1768872246.2670898
1768872246274.9023,1208.058608058608,,1,5,1768872246.2749023
1768872246282.7148,1207.3260073260074,,1,5,1768872246.2827148
1768872246290.527,1205.8608058608058,,1,5,1768872246.290527
1768872246298.3398,1203.6630036630036,,1,5,1768872246.2983398
1768872246306.1523,1202.9304029304028,,1,5,1768872246.3061523
1768872246313.9648,1197.069597069597,,1,5,1768872246.3139648
1768872246321.777,1195.6043956043954,,1,5,1768872246.321777
1768872246329.5898,1195.6043956043954,,1,5,1768872246.3295898
1768872246337.4023,1196.3369963369962,,1,5,1768872246.3374023
1768872246345.2148,1196.3369963369962,,1,5,1768872246.3452148
1768872246353.027,1196.3369963369962,,1,5,1768872246.353027
1768872246360.8398,1203.6630036630036,,1,5,1768872246.3608398
1768872246368.6523,1213.1868131868132,,1,5,1768872246.3686523
1768872246376.4648,1230.7692307692307,,1,5,1768872246.3764648
1768872246384.277,1244.688644688645,,1,5,1768872246.384277
1768872246392.0898,1263.003663003663,,1,5,1768872246.3920898
1768872246399.9023,1278.3882783882782,,1,5,1768872246.3999023
1768872246407.7148,1290.8424908424909,,1,5,1768872246.4077148
1768872246415.527,1304.7619047619046,,1,5,1768872246.415527
1768872246423.3398,1311.3553113553112,,1,5,1768872246.4233398
1768872246431.1523,1316.4835164835165,,1,5,1768872246.4311523
1768872246438.9648,1315.7509157509155,,1,5,1768872246.4389648
1768872246446.777,1318.6813186813183,,1,5,1768872246.446777
1768872246454.5898,1321.6117216117216,,1,5,1768872246.4545898
1768872246462.4023,1325.2747252747251,,1,5,1768872246.4624023
1768872246470.2148,1330.4029304029302,,1,5,1768872246.4702148
1768872246478.027,1331.135531135531,,1,5,1768872246.478027
1768872246485.8398,1331.8681318681315,,1,5,1768872246.4858398
1768872246493.6523,1328.937728937729,,1,5,1768872246.4936523
1768872246501.4648,1323.8095238095236,,1,5,1768872246.5014648
1768872246509.277,1315.7509157509155,,1,5,1768872246.509277
1768872246517.0898,1309.89010989011,,1,5,1768872246.5170898
1768872246524.9023,1298.9010989010987,,1,5,1768872246.5249023
1768872246532.7148,1290.10989010989,,1,5,1768872246.5327148
1768872246540.527,1277.6556776556777,,1,5,1768872246.540527
1768872246548.3398,1270.3296703296703,,1,5,1768872246.5483398
1768872246556.1523,1261.5384615384614,,1,5,1768872246.5561523
1768872246563.9648,1254.9450549450548,,1,5,1768872246.5639648
1768872246571.777,1247.6190476190477,,1,5,1768872246.571777
1768872246579.5898,1243.956043956044,,1,5,1768872246.5795898
1768872246587.4023,1235.8974358974358,,1,5,1768872246.5874023
1768872246595.2148,1234.4322344322345,,1,5,1768872246.5952148
1768872246603.027,1232.2344322344322,,1,5,1768872246.603027
1768872246610.8398,1232.2344322344322,,1,5,1768872246.6108398
1768872246618.6523,1224.9084249084249,,1,5,1768872246.6186523
1768872246626.4648,1221.9780219780218,,1,5,1768872246.6264648
1768872246634.277,1220.5128205128203,,1,5,1768872246.634277
1768872246642.0898,1218.3150183150185,,1,5,1768872246.6420898
1768872246649.9023,1220.5128205128203,,1,5,1768872246.6499023
1768872246657.7148,1221.9780219780218,,1,5,1768872246.6577148
1768872246665.527,1220.5128205128203,,1,5,1768872246.665527
1768872246673.3398,1219.7802197802198,,1,5,1768872246.6733398
1768872246681.1523,1217.5824175824175,,0,-1,1768872246.6811523
1768872246688.9648,1223.4432234432234,,0,-1,1768872246.6889648
1768872246696.777,1229.3040293040292,,0,-1,1768872246.696777
1768872246704.5898,1238.095238095238,,0,-1,1768872246.7045898
1768872246712.4023,1252.014652014652,,0,-1,1768872246.7124023
1768872246720.2148,1260.07326007326,,0,-1,1768872246.7202148
1768872246728.027,1272.5274725274724,,0,-1,1768872246.728027
1768872246735.8398,1278.3882783882782,,0,-1,1768872246.7358398
1768872246743.6523,1283.5164835164835,,0,-1,1768872246.7436523
1768872246751.4648,1279.120879120879,,0,-1,1768872246.7514648
1768872246759.277,1272.5274725274724,,0,-1,1768872246.759277
1768872246767.0898,1263.003663003663,,0,-1,1768872246.7670898
1768872246774.9023,1249.084249084249,,0,-1,1768872246.7749023
1768872246782.7148,1240.29304029304,,0,-1,1768872246.7827148
1768872246790.527,1224.9084249084249,,0,-1,1768872246.790527
1768872246798.3398,1213.1868131868132,,0,-1,1768872246.7983398
1768872246806.1523,1207.3260073260074,,0,-1,1768872246.8061523
1768872246813.9648,1197.8021978021975,,0,-1,1768872246.8139648
1768872246821.777,1187.5457875457876,,0,-1,1768872246.821777
1768872246829.5898,1180.952380952381,,0,-1,1768872246.8295898
1768872246837.4023,1174.3589743589744,,0,-1,1768872246.8374023
1768872246845.2148,1173.6263736263736,,0,-1,1768872246.8452148
1768872246853.027,1176.5567765567764,,0,-1,1768872246.853027
1768872246860.8398,1181.6849816849815,,0,-1,1768872246.8608398
1768872246868.6523,1182.4175824175825,,0,-1,1768872246.8686523
1768872246876.4648,1183.150183150183,,0,-1,1768872246.8764648
1768872246884.277,1187.5457875457876,,0,-1,1768872246.884277
1768872246892.0898,1190.4761904761904,,0,-1,1768872246.8920898
1768872246899.9023,1193.4065934065934,,0,-1,1768872246.8999023
1768872246907.7148,1200.0,,0,-1,1768872246.9077148
1768872246915.527,1203.6630036630036,,0,-1,1768872246.915527
1768872246923.3398,1206.5934065934066,,0,-1,1768872246.9233398
1768872246931.1523,1209.5238095238094,,0,-1,1768872246.9311523
1768872246938.9648,1213.1868131868132,,0,-1,1768872246.9389648
1768872246946.777,1219.7802197802198,,0,-1,1768872246.946777
1768872246954.5898,1222.7106227106226,,0,-1,1768872246.9545898
1768872246962.4023,1222.7106227106226,,0,-1,1768872246.9624023
1768872246970.2148,1221.9780219780218,,0,-1,1768872246.9702148
1768872246978.027,1219.047619047619,,0,-1,1768872246.978027
1768872246985.8398,1213.9194139194135,,0,-1,1768872246.9858398
1768872246993.6523,1213.1868131868132,,0,-1,1768872246.9936523
1768872247001.4648,1219.047619047619,,0,-1,1768872247.0014648
1768872247009.277,1223.4432234432234,,0,-1,1768872247.009277
1768872247017.0898,1230.03663003663,,0,-1,1768872247.0170898
1768872247024.9023,1232.967032967033,,0,-1,1768872247.0249023
1768872247032.7148,1240.29304029304,,0,-1,1768872247.0327148
1768872247040.527,1246.153846153846,,0,-1,1768872247.040527
1768872247048.3398,1249.084249084249,,0,-1,1768872247.0483398
1768872247056.1523,1256.4102564102564,,0,-1,1768872247.0561523
1768872247063.9648,1265.2014652014652,,0,-1,1768872247.0639648
1768872247071.777,1270.3296703296703,,0,-1,1768872247.071777
1768872247079.5898,1274.7252747252746,,0,-1,1768872247.0795898
1768872247087.4023,1279.8534798534797,,0,-1,1768872247.0874023
1768872247095.2148,1284.9816849816848,,0,-1,1768872247.0952148
1768872247103.027,1287.9120879120878,,0,-1,1768872247.103027
1768872247110.8398,1288.6446886446886,,0,-1,1768872247.1108398
1768872247118.6523,1289.3772893772891,,0,-1,1768872247.1186523
1768872247126.4648,1290.8424908424909,,0,-1,1768872247.1264648
1768872247134.277,1289.3772893772891,,0,-1,1768872247.134277
1768872247142.0898,1287.179487179487,,0,-1,1768872247.1420898
1768872247149.9023,1277.6556776556777,,0,-1,1768872247.1499023
1768872247157.7148,1263.7362637362637,,0,-1,1768872247.1577148
1768872247165.527,1254.212454212454,,0,-1,1768872247.165527
1768872247173.3398,1247.6190476190477,,0,-1,1768872247.1733398
1768872247181.1523,1244.688644688645,,0,-1,1768872247.1811523
1768872247188.9648,1242.4908424908424,,0,-1,1768872247.1889648
1768872247196.777,1241.0256410256409,,0,-1,1768872247.196777
1768872247204.5898,1238.8278388278388,,0,-1,1768872247.2045898
1768872247212.4023,1238.095238095238,,0,-1,1768872247.2124023
1768872247220.2148,1237.362637362637,,0,-1,1768872247.2202148
1768872247228.027,1238.8278388278388,,0,-1,1768872247.228027
1768872247235.8398,1239.5604395604396,,0,-1,1768872247.2358398
1768872247243.6523,1238.095238095238,,0,-1,1768872247.2436523
1768872247251.4648,1235.164835164835,,0,-1,1768872247.2514648
1768872247259.277,1231.5018315018317,,0,-1,1768872247.259277
1768872247267.0898,1232.967032967033,,0,-1,1768872247.2670898
1768872247274.9023,1237.362637362637,,0,-1,1768872247.2749023
1768872247282.7148,1241.7582417582416,,0,-1,1768872247.2827148
1768872247290.527,1244.688644688645,,0,-1,1768872247.290527
1768872247298.3398,1248.3516483516482,,0,-1,1768872247.2983398
1768872247306.1523,1248.3516483516482,,0,-1,1768872247.3061523
1768872247313.9648,1245.4212454212454,,0,-1,1768872247.3139648
1768872247321.777,1241.0256410256409,,0,-1,1768872247.321777
1768872247329.5898,1239.5604395604396,,0,-1,1768872247.3295898
1768872247337.4023,1240.29304029304,,0,-1,1768872247.3374023
1768872247345.2148,1243.2234432234432,,0,-1,1768872247.3452148
1768872247353.027,1242.4908424908424,,0,-1,1768872247.353027
1768872247360.8398,1240.29304029304,,0,-1,1768872247.3608398
1768872247368.6523,1238.095238095238,,0,-1,1768872247.3686523
1768872247376.4648,1238.8278388278388,,0,-1,1768872247.3764648
1768872247384.277,1240.29304029304,,0,-1,1768872247.384277
1768872247392.0898,1241.0256410256409,,0,-1,1768872247.3920898
1768872247399.9023,1242.4908424908424,,0,-1,1768872247.3999023
1768872247407.7148,1245.4212454212454,,0,-1,1768872247.4077148
1768872247415.527,1250.5494505494505,,0,-1,1768872247.415527
1768872247423.3398,1255.6776556776556,,0,-1,1768872247.4233398
1768872247431.1523,1257.875457875458,,0,-1,1768872247.4311523
1768872247438.9648,1257.875457875458,,0,-1,1768872247.4389648
1768872247446.777,1257.875457875458,,0,-1,1768872247.446777
1768872247454.5898,1257.875457875458,,0,-1,1768872247.4545898
1768872247462.4023,1255.6776556776556,,0,-1,1768872247.4624023
1768872247470.2148,1250.5494505494505,,0,-1,1768872247.4702148
1768872247478.027,1246.153846153846,,0,-1,1768872247.478027
1768872247485.8398,1239.5604395604396,,0,-1,1768872247.4858398
1768872247493.6523,1233.6996336996335,,0,-1,1768872247.4936523
1768872247501.4648,1232.2344322344322,,0,-1,1768872247.5014648
1768872247509.277,1233.6996336996335,,0,-1,1768872247.509277
1768872247517.0898,1232.967032967033,,0,-1,1768872247.5170898
1768872247524.9023,1230.03663003663,,0,-1,1768872247.5249023
1768872247532.7148,1228.5714285714284,,0,-1,1768872247.5327148
1768872247540.527,1229.3040293040292,,0,-1,1768872247.540527
1768872247548.3398,1231.5018315018317,,0,-1,1768872247.5483398
1768872247556.1523,1231.5018315018317,,0,-1,1768872247.5561523
1768872247563.9648,1227.8388278388277,,0,-1,1768872247.5639648
1768872247571.777,1224.9084249084249,,0,-1,1768872247.571777
1768872247579.5898,1224.175824175824,,0,-1,1768872247.5795898
1768872247587.4023,1226.3736263736264,,0,-1,1768872247.5874023
1768872247595.2148,1230.7692307692307,,0,-1,1768872247.5952148
1768872247603.027,1235.164835164835,,0,-1,1768872247.603027
1768872247610.8398,1237.362637362637,,0,-1,1768872247.6108398
1768872247618.6523,1238.095238095238,,0,-1,1768872247.6186523
1768872247626.4648,1241.7582417582416,,0,-1,1768872247.6264648
1768872247634.277,1246.153846153846,,0,-1,1768872247.634277
1768872247642.0898,1251.2820512820513,,0,-1,1768872247.6420898
1768872247649.9023,1255.6776556776556,,0,-1,1768872247.6499023
1768872247657.7148,1258.6080586080586,,0,-1,1768872247.6577148
1768872247665.527,1262.2710622710622,,0,-1,1768872247.665527
1768872247673.3398,1265.9340659340658,,0,-1,1768872247.6733398
1768872247681.1523,1271.7948717948716,,0,-1,1768872247.6811523
1768872247688.9648,1276.190476190476,,0,-1,1768872247.6889648
1768872247696.777,1280.5860805860805,,0,-1,1768872247.696777
1768872247704.5898,1284.2490842490845,,0,-1,1768872247.7045898
1768872247712.4023,1287.179487179487,,0,-1,1768872247.7124023
1768872247720.2148,1289.3772893772891,,0,-1,1768872247.7202148
1768872247728.027,1290.8424908424909,,1,6,1768872247.728027
1768872247735.8398,1297.4358974358977,,1,6,1768872247.7358398
1768872247743.6523,1301.8315018315018,,1,6,1768872247.7436523
1768872247751.4648,1303.2967032967033,,1,6,1768872247.7514648
1768872247759.277,1301.8315018315018,,1,6,1768872247.759277
1768872247767.0898,1298.168498168498,,1,6,1768872247.7670898
1768872247774.9023,1294.5054945054944,,1,6,1768872247.7749023
1768872247782.7148,1296.7032967032967,,1,6,1768872247.7827148
1768872247790.527,1303.2967032967033,,1,6,1768872247.790527
1768872247798.3398,1310.6227106227104,,1,6,1768872247.7983398
1768872247806.1523,1317.216117216117,,1,6,1768872247.8061523
1768872247813.9648,1321.6117216117216,,1,6,1768872247.8139648
1768872247821.777,1320.8791208791208,,1,6,1768872247.821777
1768872247829.5898,1317.216117216117,,1,6,1768872247.8295898
1768872247837.4023,1312.8205128205127,,1,6,1768872247.8374023
1768872247845.2148,1304.0293040293038,,1,6,1768872247.8452148
1768872247853.027,1300.3663003663005,,1,6,1768872247.853027
1768872247860.8398,1295.970695970696,,1,6,1768872247.8608398
1768872247868.6523,1289.3772893772891,,1,6,1768872247.8686523
1768872247876.4648,1285.7142857142856,,1,6,1768872247.8764648
1768872247884.277,1284.9816849816848,,1,6,1768872247.884277
1768872247892.0898,1287.179487179487,,1,6,1768872247.8920898
1768872247899.9023,1288.6446886446886,,1,6,1768872247.8999023
1768872247907.7148,1289.3772893772891,,1,6,1768872247.9077148
1768872247915.527,1289.3772893772891,,1,6,1768872247.915527
1768872247923.3398,1287.9120879120878,,1,6,1768872247.9233398
1768872247931.1523,1287.179487179487,,1,6,1768872247.9311523
1768872247938.9648,1281.3186813186812,,1,6,1768872247.9389648
1768872247946.777,1277.6556776556777,,1,6,1768872247.946777
1768872247954.5898,1277.6556776556777,,1,6,1768872247.9545898
1768872247962.4023,1277.6556776556777,,1,6,1768872247.9624023
1768872247970.2148,1279.8534798534797,,1,6,1768872247.9702148
1768872247978.027,1279.8534798534797,,1,6,1768872247.978027
1768872247985.8398,1281.3186813186812,,1,6,1768872247.9858398
1768872247993.6523,1284.9816849816848,,1,6,1768872247.9936523
1768872248001.4648,1285.7142857142856,,1,6,1768872248.0014648
1768872248009.277,1281.3186813186812,,1,6,1768872248.009277
1768872248017.0898,1272.5274725274724,,1,6,1768872248.0170898
1768872248024.9023,1263.003663003663,,1,6,1768872248.0249023
1768872248032.7148,1255.6776556776556,,1,6,1768872248.0327148
1768872248040.527,1249.084249084249,,1,6,1768872248.040527
1768872248048.3398,1242.4908424908424,,1,6,1768872248.0483398
1768872248056.1523,1238.8278388278388,,1,6,1768872248.0561523
1768872248063.9648,1240.29304029304,,1,6,1768872248.0639648
1768872248071.777,1243.956043956044,,1,6,1768872248.071777
1768872248079.5898,1249.8168498168498,,1,6,1768872248.0795898
1768872248087.4023,1259.3406593406592,,1,6,1768872248.0874023
1768872248095.2148,1268.8644688644688,,1,6,1768872248.0952148
1768872248103.027,1274.7252747252746,,1,6,1768872248.103027
1768872248110.8398,1279.8534798534797,,1,6,1768872248.1108398
1768872248118.6523,1286.4468864468863,,1,6,1768872248.1186523
1768872248126.4648,1290.10989010989,,1,6,1768872248.1264648
1768872248134.277,1290.10989010989,,1,6,1768872248.134277
1768872248142.0898,1290.8424908424909,,1,6,1768872248.1420898
1768872248149.9023,1293.7728937728937,,1,6,1768872248.1499023
1768872248157.7148,1294.5054945054944,,1,6,1768872248.1577148
1768872248165.527,1293.040293040293,,1,6,1768872248.165527
1768872248173.3398,1289.3772893772891,,1,6,1768872248.1733398
1768872248181.1523,1285.7142857142856,,1,6,1768872248.1811523
1768872248188.9648,1277.6556776556777,,1,6,1768872248.1889648
1768872248196.777,1271.062271062271,,1,6,1768872248.196777
1768872248204.5898,1267.3992673992673,,1,6,1768872248.2045898
1768872248212.4023,1262.2710622710622,,1,6,1768872248.2124023
1768872248220.2148,1260.805860805861,,1,6,1768872248.2202148
1768872248228.027,1260.805860805861,,1,6,1768872248.228027
1768872248235.8398,1263.003663003663,,1,6,1768872248.2358398
1768872248243.6523,1270.3296703296703,,1,6,1768872248.2436523
1768872248251.4648,1280.5860805860805,,1,6,1768872248.2514648
1768872248259.277,1290.8424908424909,,1,6,1768872248.259277
1768872248267.0898,1300.3663003663005,,1,6,1768872248.2670898
1768872248274.9023,1308.4249084249084,,1,6,1768872248.2749023
1768872248282.7148,1315.018315018315,,1,6,1768872248.2827148
1768872248290.527,1317.216117216117,,1,6,1768872248.290527
1768872248298.3398,1323.076923076923,,1,6,1768872248.2983398
1768872248306.1523,1323.076923076923,,1,6,1768872248.3061523
1768872248313.9648,1323.076923076923,,1,6,1768872248.3139648
1768872248321.777,1323.076923076923,,1,6,1768872248.321777
1768872248329.5898,1320.14652014652,,1,6,1768872248.3295898
1768872248337.4023,1320.14652014652,,1,6,1768872248.3374023
1768872248345.2148,1320.8791208791208,,1,6,1768872248.3452148
1768872248353.027,1320.8791208791208,,1,6,1768872248.353027
1768872248360.8398,1318.6813186813183,,1,6,1768872248.3608398
1768872248368.6523,1312.8205128205127,,1,6,1768872248.3686523
1768872248376.4648,1305.4945054945051,,1,6,1768872248.3764648
1768872248384.277,1298.168498168498,,1,6,1768872248.384277
1768872248392.0898,1290.8424908424909,,1,6,1768872248.3920898
1768872248399.9023,1283.5164835164835,,1,6,1768872248.3999023
1768872248407.7148,1277.6556776556777,,1,6,1768872248.4077148
1768872248415.527,1271.062271062271,,1,6,1768872248.415527
1768872248423.3398,1270.3296703296703,,1,6,1768872248.4233398
1768872248431.1523,1271.7948717948716,,1,6,1768872248.4311523
1768872248438.9648,1273.992673992674,,1,6,1768872248.4389648
1768872248446.777,1283.5164835164835,,1,6,1768872248.446777
1768872248454.5898,1293.7728937728937,,1,6,1768872248.4545898
1768872248462.4023,1303.2967032967033,,1,6,1768872248.4624023
1768872248470.2148,1309.89010989011,,1,6,1768872248.4702148
1768872248478.027,1316.4835164835165,,1,6,1768872248.478027
1768872248485.8398,1322.3443223443223,,1,6,1768872248.4858398
1768872248493.6523,1328.937728937729,,1,6,1768872248.4936523
1768872248501.4648,1326.739926739927,,1,6,1768872248.5014648
1768872248509.277,1320.8791208791208,,1,6,1768872248.509277
1768872248517.0898,1316.4835164835165,,1,6,1768872248.5170898
1768872248524.9023,1312.8205128205127,,1,6,1768872248.5249023
1768872248532.7148,1309.89010989011,,1,6,1768872248.5327148
1768872248540.527,1305.4945054945051,,1,6,1768872248.540527
1768872248548.3398,1298.9010989010987,,1,6,1768872248.5483398
1768872248556.1523,1293.040293040293,,0,-1,1768872248.5561523
1768872248563.9648,1287.9120879120878,,0,-1,1768872248.5639648
1768872248571.777,1284.9816849816848,,0,-1,1768872248.571777
1768872248579.5898,1285.7142857142856,,0,-1,1768872248.5795898
1768872248587.4023,1288.6446886446886,,0,-1,1768872248.5874023
1768872248595.2148,1294.5054945054944,,0,-1,1768872248.5952148
1768872248603.027,1299.6336996336995,,0,-1,1768872248.603027
1768872248610.8398,1304.0293040293038,,0,-1,1768872248.6108398
1768872248618.6523,1306.227106227106,,0,-1,1768872248.6186523
1768872248626.4648,1312.087912087912,,0,-1,1768872248.6264648
1768872248634.277,1314.2857142857142,,0,-1,1768872248.634277
1768872248642.0898,1317.216117216117,,0,-1,1768872248.6420898
1768872248649.9023,1320.14652014652,,0,-1,1768872248.6499023
1768872248657.7148,1317.9487179487178,,0,-1,1768872248.6577148
1768872248665.527,1309.1575091575091,,0,-1,1768872248.665527
1768872248673.3398,1304.0293040293038,,0,-1,1768872248.6733398
1768872248681.1523,1298.168498168498,,0,-1,1768872248.6811523
1768872248688.9648,1293.7728937728937,,0,-1,1768872248.6889648
1768872248696.777,1290.8424908424909,,0,-1,1768872248.696777
1768872248704.5898,1294.5054945054944,,0,-1,1768872248.7045898
1768872248712.4023,1296.7032967032967,,0,-1,1768872248.7124023
1768872248720.2148,1305.4945054945051,,0,-1,1768872248.7202148
1768872248728.027,1309.1575091575091,,0,-1,1768872248.728027
1768872248735.8398,1307.6923076923076,,0,-1,1768872248.7358398
1768872248743.6523,1301.098901098901,,0,-1,1768872248.7436523
1768872248751.4648,1295.970695970696,,0,-1,1768872248.7514648
1768872248759.277,1286.4468864468863,,0,-1,1768872248.759277
1768872248767.0898,1276.923076923077,,0,-1,1768872248.7670898
1768872248774.9023,1273.260073260073,,0,-1,1768872248.7749023
1768872248782.7148,1266.6666666666663,,0,-1,1768872248.7827148
1768872248790.527,1264.4688644688645,,0,-1,1768872248.790527
1768872248798.3398,1269.5970695970695,,0,-1,1768872248.7983398
1768872248806.1523,1272.5274725274724,,0,-1,1768872248.8061523
1768872248813.9648,1279.8534798534797,,0,-1,1768872248.8139648
1768872248821.777,1291.5750915750914,,0,-1,1768872248.821777
1768872248829.5898,1302.5641025641023,,0,-1,1768872248.8295898
1768872248837.4023,1315.018315018315,,0,-1,1768872248.8374023
1768872248845.2148,1326.007326007326,,0,-1,1768872248.8452148
1768872248853.027,1326.739926739927,,0,-1,1768872248.853027
1768872248860.8398,1328.937728937729,,0,-1,1768872248.8608398
1768872248868.6523,1327.4725274725274,,0,-1,1768872248.8686523
1768872248876.4648,1326.007326007326,,0,-1,1768872248.8764648
1768872248884.277,1330.4029304029302,,0,-1,1768872248.884277
1768872248892.0898,1330.4029304029302,,0,-1,1768872248.8920898
1768872248899.9023,1334.065934065934,,0,-1,1768872248.8999023
1768872248907.7148,1339.194139194139,,0,-1,1768872248.9077148
1768872248915.527,1343.5897435897434,,0,-1,1768872248.915527
1768872248923.3398,1352.3809523809523,,0,-1,1768872248.9233398
1768872248931.1523,1354.5787545787546,,0,-1,1768872248.9311523
1768872248938.9648,1355.311355311355,,0,-1,1768872248.9389648
1768872248946.777,1353.8461538461538,,0,-1,1768872248.946777
1768872248954.5898,1344.3223443223442,,0,-1,1768872248.9545898
1768872248962.4023,1334.7985347985348,,0,-1,1768872248.9624023
1768872248970.2148,1320.8791208791208,,0,-1,1768872248.9702148
1768872248978.027,1306.9597069597069,,0,-1,1768872248.978027
1768872248985.8398,1294.5054945054944,,0,-1,1768872248.9858398
1768872248993.6523,1286.4468864468863,,0,-1,1768872248.9936523
1768872249001.4648,1285.7142857142856,,0,-1,1768872249.0014648
1768872249009.277,1290.10989010989,,0,-1,1768872249.009277
1768872249017.0898,1292.3076923076922,,0,-1,1768872249.0170898
1768872249024.9023,1300.3663003663005,,0,-1,1768872249.0249023
1768872249032.7148,1306.227106227106,,0,-1,1768872249.0327148
1768872249040.527,1312.8205128205127,,0,-1,1768872249.040527
1768872249048.3398,1320.8791208791208,,0,-1,1768872249.0483398
1768872249056.1523,1323.076923076923,,0,-1,1768872249.0561523
1768872249063.9648,1331.135531135531,,0,-1,1768872249.0639648
1768872249071.777,1337.7289377289376,,0,-1,1768872249.071777
1768872249079.5898,1342.857142857143,,0,-1,1768872249.0795898
1768872249087.4023,1347.2527472527472,,0,-1,1768872249.0874023
1768872249095.2148,1342.857142857143,,0,-1,1768872249.0952148
1768872249103.027,1337.7289377289376,,0,-1,1768872249.103027
1768872249110.8398,1336.263736263736,,0,-1,1768872249.1108398
1768872249118.6523,1331.8681318681315,,0,-1,1768872249.1186523
1768872249126.4648,1326.007326007326,,0,-1,1768872249.1264648
1768872249134.277,1323.8095238095236,,0,-1,1768872249.134277
1768872249142.0898,1321.6117216117216,,0,-1,1768872249.1420898
1768872249149.9023,1318.6813186813183,,0,-1,1768872249.1499023
1768872249157.7148,1319.4139194139193,,0,-1,1768872249.1577148
1768872249165.527,1326.007326007326,,0,-1,1768872249.165527
1768872249173.3398,1329.6703296703297,,0,-1,1768872249.1733398
1768872249181.1523,1330.4029304029302,,0,-1,1768872249.1811523
1768872249188.9648,1332.6007326007325,,0,-1,1768872249.1889648
1768872249196.777,1335.5311355311355,,0,-1,1768872249.196777
1768872249204.5898,1336.263736263736,,0,-1,1768872249.2045898
1768872249212.4023,1339.92673992674,,0,-1,1768872249.2124023
1768872249220.2148,1344.3223443223442,,0,-1,1768872249.2202148
1768872249228.027,1344.3223443223442,,0,-1,1768872249.228027
1768872249235.8398,1351.6483516483515,,0,-1,1768872249.2358398
1768872249243.6523,1349.4505494505493,,0,-1,1768872249.2436523
1768872249251.4648,1347.985347985348,,0,-1,1768872249.2514648
1768872249259.277,1341.3919413919414,,0,-1,1768872249.259277
1768872249267.0898,1330.4029304029302,,0,-1,1768872249.2670898
1768872249274.9023,1321.6117216117216,,0,-1,1768872249.2749023
1768872249282.7148,1316.4835164835165,,0,-1,1768872249.2827148
1768872249290.527,1306.9597069597069,,0,-1,1768872249.290527
1768872249298.3398,1303.2967032967033,,0,-1,1768872249.2983398
1768872249306.1523,1301.098901098901,,0,-1,1768872249.3061523
1768872249313.9648,1296.7032967032967,,0,-1,1768872249.3139648
1768872249321.777,1297.4358974358977,,0,-1,1768872249.321777
1768872249329.5898,1295.970695970696,,0,-1,1768872249.3295898
1768872249337.4023,1299.6336996336995,,0,-1,1768872249.3374023
1768872249345.2148,1304.0293040293038,,0,-1,1768872249.3452148
1768872249353.027,1308.4249084249084,,0,-1,1768872249.353027
1768872249360.8398,1317.9487179487178,,0,-1,1768872249.3608398
1768872249368.6523,1323.076923076923,,0,-1,1768872249.3686523
1768872249376.4648,1325.2747252747251,,0,-1,1768872249.3764648
1768872249384.277,1332.6007326007325,,0,-1,1768872249.384277
1768872249392.0898,1336.263736263736,,0,-1,1768872249.3920898
1768872249399.9023,1337.7289377289376,,0,-1,1768872249.3999023
1768872249407.7148,1339.92673992674,,0,-1,1768872249.4077148
1768872249415.527,1340.6593406593406,,0,-1,1768872249.415527
1768872249423.3398,1334.065934065934,,0,-1,1768872249.4233398
1768872249431.1523,1325.2747252747251,,0,-1,1768872249.4311523
1768872249438.9648,1315.7509157509155,,0,-1,1768872249.4389648
1768872249446.777,1312.8205128205127,,0,-1,1768872249.446777
1768872249454.5898,1309.89010989011,,0,-1,1768872249.4545898
1768872249462.4023,1314.2857142857142,,0,-1,1768872249.4624023
1768872249470.2148,1316.4835164835165,,0,-1,1768872249.4702148
1768872249478.027,1319.4139194139193,,0,-1,1768872249.478027
1768872249485.8398,1328.937728937729,,0,-1,1768872249.4858398
1768872249493.6523,1336.9963369963368,,0,-1,1768872249.4936523
1768872249501.4648,1345.054945054945,,0,-1,1768872249.5014648
1768872249509.277,1353.113553113553,,0,-1,1768872249.509277
1768872249517.0898,1363.3699633699632,,0,-1,1768872249.5170898
1768872249524.9023,1372.8937728937728,,1,7,1768872249.5249023
1768872249532.7148,1383.8827838827838,,1,7,1768872249.5327148
1768872249540.527,1391.2087912087911,,1,7,1768872249.540527
1768872249548.3398,1392.6739926739926,,1,7,1768872249.5483398
1768872249556.1523,1386.8131868131868,,1,7,1768872249.5561523
1768872249563.9648,1379.4871794871794,,1,7,1768872249.5639648
1768872249571.777,1375.091575091575,,1,7,1768872249.571777
1768872249579.5898,1373.6263736263736,,1,7,1768872249.5795898
1768872249587.4023,1372.161172161172,,1,7,1768872249.5874023
1768872249595.2148,1367.7655677655678,,1,7,1768872249.5952148
1768872249603.027,1368.4981684981683,,1,7,1768872249.603027
1768872249610.8398,1371.428571428571,,1,7,1768872249.6108398
1768872249618.6523,1374.3589743589744,,1,7,1768872249.6186523
1768872249626.4648,1375.091575091575,,1,7,1768872249.6264648
1768872249634.277,1374.3589743589744,,1,7,1768872249.634277
1768872249642.0898,1378.021978021978,,1,7,1768872249.6420898
1768872249649.9023,1383.150183150183,,1,7,1768872249.6499023
1768872249657.7148,1383.8827838827838,,1,7,1768872249.6577148
1768872249665.527,1382.4175824175825,,1,7,1768872249.665527
1768872249673.3398,1380.2197802197802,,1,7,1768872249.6733398
1768872249681.1523,1375.8241758241757,,1,7,1768872249.6811523
1768872249688.9648,1372.161172161172,,1,7,1768872249.6889648
1768872249696.777,1366.3003663003662,,1,7,1768872249.696777
1768872249704.5898,1359.7069597069597,,1,7,1768872249.7045898
1768872249712.4023,1354.5787545787546,,1,7,1768872249.7124023
1768872249720.2148,1349.4505494505493,,1,7,1768872249.7202148
1768872249728.027,1346.5201465201465,,1,7,1768872249.728027
1768872249735.8398,1344.3223443223442,,1,7,1768872249.7358398
1768872249743.6523,1347.985347985348,,1,7,1768872249.7436523
1768872249751.4648,1355.311355311355,,1,7,1768872249.7514648
1768872249759.277,1361.1721611721612,,1,7,1768872249.759277
1768872249767.0898,1363.3699633699632,,1,7,1768872249.7670898
1768872249774.9023,1367.032967032967,,1,7,1768872249.7749023
1768872249782.7148,1370.6959706959706,,1,7,1768872249.7827148
1768872249790.527,1376.5567765567764,,1,7,1768872249.790527
1768872249798.3398,1380.952380952381,,1,7,1768872249.7983398
1768872249806.1523,1383.8827838827838,,1,7,1768872249.8061523
1768872249813.9648,1383.150183150183,,1,7,1768872249.8139648
1768872249821.777,1382.4175824175825,,1,7,1768872249.821777
1768872249829.5898,1382.4175824175825,,1,7,1768872249.8295898
1768872249837.4023,1381.6849816849815,,1,7,1768872249.8374023
1768872249845.2148,1379.4871794871794,,1,7,1768872249.8452148
1768872249853.027,1373.6263736263736,,1,7,1768872249.853027
1768872249860.8398,1366.3003663003662,,1,7,1768872249.8608398
1768872249868.6523,1361.1721611721612,,1,7,1768872249.8686523
1768872249876.4648,1360.4395604395604,,1,7,1768872249.8764648
1768872249884.277,1364.102564102564,,1,7,1768872249.884277
1768872249892.0898,1367.032967032967,,1,7,1768872249.8920898
1768872249899.9023,1367.032967032967,,1,7,1768872249.8999023
1768872249907.7148,1364.102564102564,,1,7,1768872249.9077148
1768872249915.527,1356.7765567765566,,1,7,1768872249.915527
1768872249923.3398,1351.6483516483515,,1,7,1768872249.9233398
1768872249931.1523,1350.18315018315,,1,7,1768872249.9311523
1768872249938.9648,1350.18315018315,,1,7,1768872249.9389648
1768872249946.777,1350.9157509157508,,1,7,1768872249.946777
1768872249954.5898,1351.6483516483515,,1,7,1768872249.9545898
1768872249962.4023,1353.113553113553,,1,7,1768872249.9624023
1768872249970.2148,1353.8461538461538,,1,7,1768872249.9702148
1768872249978.027,1349.4505494505493,,1,7,1768872249.978027
1768872249985.8398,1343.5897435897434,,1,7,1768872249.9858398
1768872249993.6523,1341.3919413919414,,1,7,1768872249.9936523
1768872250001.4648,1337.7289377289376,,1,7,1768872250.0014648
1768872250009.277,1333.3333333333333,,1,7,1768872250.009277
1768872250017.0898,1330.4029304029302,,1,7,1768872250.0170898
1768872250024.9023,1327.4725274725274,,1,7,1768872250.0249023
1768872250032.7148,1327.4725274725274,,1,7,1768872250.0327148
1768872250040.527,1327.4725274725274,,1,7,1768872250.040527
1768872250048.3398,1331.8681318681315,,1,7,1768872250.0483398
1768872250056.1523,1335.5311355311355,,1,7,1768872250.0561523
1768872250063.9648,1338.4615384615383,,1,7,1768872250.0639648
1768872250071.777,1339.194139194139,,1,7,1768872250.071777
1768872250079.5898,1340.6593406593406,,1,7,1768872250.0795898
1768872250087.4023,1338.4615384615383,,1,7,1768872250.0874023
1768872250095.2148,1331.8681318681315,,1,7,1768872250.0952148
1768872250103.027,1326.007326007326,,1,7,1768872250.103027
1768872250110.8398,1325.2747252747251,,1,7,1768872250.1108398
1768872250118.6523,1328.2051282051282,,1,7,1768872250.1186523
1768872250126.4648,1334.065934065934,,1,7,1768872250.1264648
1768872250134.277,1342.124542124542,,1,7,1768872250.134277
1768872250142.0898,1353.113553113553,,1,7,1768872250.1420898
1768872250149.9023,1363.3699633699632,,1,7,1768872250.1499023
1768872250157.7148,1371.428571428571,,1,7,1768872250.1577148
1768872250165.527,1380.2197802197802,,1,7,1768872250.165527
1768872250173.3398,1389.7435897435896,,1,7,1768872250.1733398
1768872250181.1523,1397.069597069597,,1,7,1768872250.1811523
1768872250188.9648,1401.4652014652013,,1,7,1768872250.1889648
1768872250196.777,1409.5238095238094,,1,7,1768872250.196777
1768872250204.5898,1417.5824175824175,,1,7,1768872250.2045898
1768872250212.4023,1424.9084249084249,,1,7,1768872250.2124023
1768872250220.2148,1429.3040293040292,,1,7,1768872250.2202148
1768872250228.027,1431.5018315018317,,1,7,1768872250.228027
1768872250235.8398,1431.5018315018317,,1,7,1768872250.2358398
1768872250243.6523,1430.7692307692307,,1,7,1768872250.2436523
1768872250251.4648,1434.4322344322345,,1,7,1768872250.2514648
1768872250259.277,1437.362637362637,,1,7,1768872250.259277
1768872250267.0898,1438.095238095238,,1,7,1768872250.2670898
1768872250274.9023,1436.6300366300366,,1,7,1768872250.2749023
1768872250282.7148,1434.4322344322345,,1,7,1768872250.2827148
1768872250290.527,1432.2344322344322,,1,7,1768872250.290527
1768872250298.3398,1421.9780219780218,,1,7,1768872250.2983398
1768872250306.1523,1409.5238095238094,,1,7,1768872250.3061523
1768872250313.9648,1398.5347985347985,,0,-1,1768872250.3139648
1768872250321.777,1389.0109890109889,,0,-1,1768872250.321777
1768872250329.5898,1378.021978021978,,0,-1,1768872250.3295898
1768872250337.4023,1368.4981684981683,,0,-1,1768872250.3374023
1768872250345.2148,1363.3699633699632,,0,-1,1768872250.3452148
1768872250353.027,1358.241758241758,,0,-1,1768872250.353027
1768872250360.8398,1353.113553113553,,0,-1,1768872250.3608398
1768872250368.6523,1353.113553113553,,0,-1,1768872250.3686523
1768872250376.4648,1352.3809523809523,,0,-1,1768872250.3764648
1768872250384.277,1348.7179487179487,,0,-1,1768872250.384277
1768872250392.0898,1345.054945054945,,0,-1,1768872250.3920898
1768872250399.9023,1345.7875457875457,,0,-1,1768872250.3999023
1768872250407.7148,1346.5201465201465,,0,-1,1768872250.4077148
1768872250415.527,1348.7179487179487,,0,-1,1768872250.415527
1768872250423.3398,1349.4505494505493,,0,-1,1768872250.4233398
1768872250431.1523,1347.985347985348,,0,-1,1768872250.4311523
1768872250438.9648,1345.7875457875457,,0,-1,1768872250.4389648
1768872250446.777,1341.3919413919414,,0,-1,1768872250.446777
1768872250454.5898,1336.9963369963368,,0,-1,1768872250.4545898
1768872250462.4023,1336.9963369963368,,0,-1,1768872250.4624023
1768872250470.2148,1339.92673992674,,0,-1,1768872250.4702148
1768872250478.027,1340.6593406593406,,0,-1,1768872250.478027
1768872250485.8398,1343.5897435897434,,0,-1,1768872250.4858398
1768872250493.6523,1347.985347985348,,0,-1,1768872250.4936523
1768872250501.4648,1355.311355311355,,0,-1,1768872250.5014648
1768872250509.277,1363.3699633699632,,0,-1,1768872250.509277
1768872250517.0898,1375.091575091575,,0,-1,1768872250.5170898
1768872250524.9023,1387.5457875457876,,0,-1,1768872250.5249023
1768872250532.7148,1396.3369963369962,,0,-1,1768872250.5327148
1768872250540.527,1396.3369963369962,,0,-1,1768872250.540527
1768872250548.3398,1395.6043956043954,,0,-1,1768872250.5483398
1768872250556.1523,1396.3369963369962,,0,-1,1768872250.5561523
1768872250563.9648,1399.2673992673992,,0,-1,1768872250.5639648
1768872250571.777,1397.069597069597,,0,-1,1768872250.571777
1768872250579.5898,1388.278388278388,,0,-1,1768872250.5795898
1768872250587.4023,1381.6849816849815,,0,-1,1768872250.5874023
1768872250595.2148,1374.3589743589744,,0,-1,1768872250.5952148
1768872250603.027,1372.161172161172,,0,-1,1768872250.603027
1768872250610.8398,1370.6959706959706,,0,-1,1768872250.6108398
1768872250618.6523,1365.5677655677655,,0,-1,1768872250.6186523
1768872250626.4648,1359.7069597069597,,0,-1,1768872250.6264648
1768872250634.277,1357.5091575091574,,0,-1,1768872250.634277
1768872250642.0898,1356.7765567765566,,0,-1,1768872250.6420898
1768872250649.9023,1355.311355311355,,0,-1,1768872250.6499023
1768872250657.7148,1350.9157509157508,,0,-1,1768872250.6577148
1768872250665.527,1342.857142857143,,0,-1,1768872250.665527
1768872250673.3398,1339.92673992674,,0,-1,1768872250.6733398
1768872250681.1523,1335.5311355311355,,0,-1,1768872250.6811523
1768872250688.9648,1332.6007326007325,,0,-1,1768872250.6889648
1768872250696.777,1329.6703296703297,,0,-1,1768872250.696777
1768872250704.5898,1324.5421245421244,,0,-1,1768872250.7045898
1768872250712.4023,1326.007326007326,,0,-1,1768872250.7124023
1768872250720.2148,1328.2051282051282,,0,-1,1768872250.7202148
1768872250728.027,1329.6703296703297,,0,-1,1768872250.728027
1768872250735.8398,1330.4029304029302,,0,-1,1768872250.7358398
1768872250743.6523,1328.2051282051282,,0,-1,1768872250.7436523
1768872250751.4648,1326.739926739927,,0,-1,1768872250.7514648
1768872250759.277,1325.2747252747251,,0,-1,1768872250.759277
1768872250767.0898,1326.007326007326,,0,-1,1768872250.7670898
1768872250774.9023,1332.6007326007325,,0,-1,1768872250.7749023
1768872250782.7148,1342.857142857143,,0,-1,1768872250.7827148
1768872250790.527,1351.6483516483515,,0,-1,1768872250.790527
1768872250798.3398,1358.974358974359,,0,-1,1768872250.7983398
1768872250806.1523,1371.428571428571,,0,-1,1768872250.8061523
1768872250813.9648,1388.278388278388,,0,-1,1768872250.8139648
1768872250821.777,1405.128205128205,,0,-1,1768872250.821777
1768872250829.5898,1416.117216117216,,0,-1,1768872250.8295898
1768872250837.4023,1426.3736263736262,,0,-1,1768872250.8374023
1768872250845.2148,1432.2344322344322,,0,-1,1768872250.8452148
1768872250853.027,1430.7692307692307,,0,-1,1768872250.853027
1768872250860.8398,1429.3040293040292,,0,-1,1768872250.8608398
1768872250868.6523,1430.7692307692307,,0,-1,1768872250.8686523
1768872250876.4648,1427.8388278388277,,0,-1,1768872250.8764648
1768872250884.277,1426.3736263736262,,0,-1,1768872250.884277
1768872250892.0898,1431.5018315018317,,0,-1,1768872250.8920898
1768872250899.9023,1434.4322344322345,,0,-1,1768872250.8999023
1768872250907.7148,1439.5604395604394,,0,-1,1768872250.9077148
1768872250915.527,1443.2234432234432,,0,-1,1768872250.915527
1768872250923.3398,1441.0256410256409,,0,-1,1768872250.9233398
1768872250931.1523,1439.5604395604394,,0,-1,1768872250.9311523
1768872250938.9648,1439.5604395604394,,0,-1,1768872250.9389648
1768872250946.777,1433.6996336996335,,0,-1,1768872250.946777
1768872250954.5898,1427.8388278388277,,0,-1,1768872250.9545898
1768872250962.4023,1421.245421245421,,0,-1,1768872250.9624023
1768872250970.2148,1414.6520146520145,,0,-1,1768872250.9702148
1768872250978.027,1413.1868131868132,,0,-1,1768872250.978027
1768872250985.8398,1416.8498168498168,,0,-1,1768872250.9858398
1768872250993.6523,1417.5824175824175,,0,-1,1768872250.9936523
1768872251001.4648,1416.8498168498168,,0,-1,1768872251.0014648
1768872251009.277,1421.245421245421,,0,-1,1768872251.009277
1768872251017.0898,1421.245421245421,,0,-1,1768872251.0170898
1768872251024.9023,1420.5128205128203,,0,-1,1768872251.0249023
1768872251032.7148,1424.175824175824,,0,-1,1768872251.0327148
1768872251040.527,1428.5714285714284,,0,-1,1768872251.040527
1768872251048.3398,1427.106227106227,,0,-1,1768872251.0483398
1768872251056.1523,1426.3736263736262,,0,-1,1768872251.0561523
1768872251063.9648,1429.3040293040292,,0,-1,1768872251.0639648
1768872251071.777,1429.3040293040292,,0,-1,1768872251.071777
1768872251079.5898,1434.4322344322345,,0,-1,1768872251.0795898
1768872251087.4023,1437.362637362637,,0,-1,1768872251.0874023
1768872251095.2148,1436.6300366300366,,0,-1,1768872251.0952148
1768872251103.027,1438.8278388278388,,0,-1,1768872251.103027
1768872251110.8398,1436.6300366300366,,0,-1,1768872251.1108398
1768872251118.6523,1437.362637362637,,0,-1,1768872251.1186523
1768872251126.4648,1438.8278388278388,,0,-1,1768872251.1264648
1768872251134.277,1431.5018315018317,,0,-1,1768872251.134277
1768872251142.0898,1426.3736263736262,,0,-1,1768872251.1420898
1768872251149.9023,1421.9780219780218,,0,-1,1768872251.1499023
1768872251157.7148,1415.3846153846152,,0,-1,1768872251.1577148
1768872251165.527,1410.989010989011,,0,-1,1768872251.165527
1768872251173.3398,1415.3846153846152,,0,-1,1768872251.1733398
1768872251181.1523,1421.245421245421,,0,-1,1768872251.1811523
1768872251188.9648,1427.8388278388277,,0,-1,1768872251.1889648
1768872251196.777,1434.4322344322345,,0,-1,1768872251.196777
1768872251204.5898,1436.6300366300366,,0,-1,1768872251.2045898
1768872251212.4023,1434.4322344322345,,0,-1,1768872251.2124023
1768872251220.2148,1431.5018315018317,,0,-1,1768872251.2202148
1768872251228.027,1426.3736263736262,,0,-1,1768872251.228027
1768872251235.8398,1421.245421245421,,0,-1,1768872251.2358398
1768872251243.6523,1412.4542124542124,,0,-1,1768872251.2436523
1768872251251.4648,1405.128205128205,,0,-1,1768872251.2514648
1768872251259.277,1397.8021978021975,,0,-1,1768872251.259277
1768872251267.0898,1386.8131868131868,,0,-1,1768872251.2670898
1768872251274.9023,1375.8241758241757,,0,-1,1768872251.2749023
1768872251282.7148,1368.4981684981683,,0,-1,1768872251.2827148
1768872251290.527,1364.8351648351647,,0,-1,1768872251.290527
1768872251298.3398,1362.6373626373625,,0,-1,1768872251.2983398
1768872251306.1523,1361.904761904762,,0,-1,1768872251.3061523
1768872251313.9648,1361.1721611721612,,0,-1,1768872251.3139648
1768872251321.777,1359.7069597069597,,0,-1,1768872251.321777
1768872251329.5898,1359.7069597069597,,0,-1,1768872251.3295898
1768872251337.4023,1358.974358974359,,0,-1,1768872251.3374023
1768872251345.2148,1356.043956043956,,0,-1,1768872251.3452148
1768872251353.027,1353.113553113553,,0,-1,1768872251.353027
1768872251360.8398,1354.5787545787546,,0,-1,1768872251.3608398
1768872251368.6523,1358.974358974359,,0,-1,1768872251.3686523
1768872251376.4648,1359.7069597069597,,0,-1,1768872251.3764648
1768872251384.277,1358.974358974359,,0,-1,1768872251.384277
1768872251392.0898,1361.1721611721612,,0,-1,1768872251.3920898
1768872251399.9023,1364.102564102564,,0,-1,1768872251.3999023
1768872251407.7148,1364.102564102564,,0,-1,1768872251.4077148
1768872251415.527,1364.102564102564,,0,-1,1768872251.415527
1768872251423.3398,1364.102564102564,,0,-1,1768872251.4233398
1768872251431.1523,1367.032967032967,,0,-1,1768872251.4311523
1768872251438.9648,1375.091575091575,,0,-1,1768872251.4389648
1768872251446.777,1383.8827838827838,,0,-1,1768872251.446777
1768872251454.5898,1389.7435897435896,,1,8,1768872251.4545898
1768872251462.4023,1397.8021978021975,,1,8,1768872251.4624023
1768872251470.2148,1408.7912087912086,,1,8,1768872251.4702148
1768872251478.027,1413.1868131868132,,1,8,1768872251.478027
1768872251485.8398,1417.5824175824175,,1,8,1768872251.4858398
1768872251493.6523,1426.3736263736262,,1,8,1768872251.4936523
1768872251501.4648,1435.164835164835,,1,8,1768872251.5014648
1768872251509.277,1443.956043956044,,1,8,1768872251.509277
1768872251517.0898,1457.875457875458,,1,8,1768872251.5170898
1768872251524.9023,1473.260073260073,,1,8,1768872251.5249023
1768872251532.7148,1485.7142857142856,,1,8,1768872251.5327148
1768872251540.527,1494.5054945054944,,1,8,1768872251.540527
1768872251548.3398,1502.5641025641023,,1,8,1768872251.5483398
1768872251556.1523,1510.6227106227104,,1,8,1768872251.5561523
1768872251563.9648,1515.018315018315,,1,8,1768872251.5639648
1768872251571.777,1514.2857142857142,,1,8,1768872251.571777
1768872251579.5898,1517.9487179487178,,1,8,1768872251.5795898
1768872251587.4023,1525.2747252747251,,1,8,1768872251.5874023
1768872251595.2148,1528.2051282051282,,1,8,1768872251.5952148
1768872251603.027,1528.2051282051282,,1,8,1768872251.603027
1768872251610.8398,1530.4029304029302,,1,8,1768872251.6108398
1768872251618.6523,1521.6117216117216,,1,8,1768872251.6186523
1768872251626.4648,1512.087912087912,,1,8,1768872251.6264648
1768872251634.277,1509.1575091575091,,1,8,1768872251.634277
1768872251642.0898,1503.2967032967033,,1,8,1768872251.6420898
1768872251649.9023,1501.098901098901,,1,8,1768872251.6499023
1768872251657.7148,1498.9010989010987,,1,8,1768872251.6577148
1768872251665.527,1498.168498168498,,1,8,1768872251.665527
1768872251673.3398,1498.9010989010987,,1,8,1768872251.6733398
1768872251681.1523,1493.7728937728937,,1,8,1768872251.6811523
1768872251688.9648,1491.5750915750914,,1,8,1768872251.6889648
1768872251696.777,1487.179487179487,,1,8,1768872251.696777
1768872251704.5898,1485.7142857142856,,1,8,1768872251.7045898
1768872251712.4023,1486.4468864468863,,1,8,1768872251.7124023
1768872251720.2148,1482.7838827838827,,1,8,1768872251.7202148
1768872251728.027,1484.2490842490845,,1,8,1768872251.728027
1768872251735.8398,1486.4468864468863,,1,8,1768872251.7358398
1768872251743.6523,1487.179487179487,,1,8,1768872251.7436523
1768872251751.4648,1490.8424908424906,,1,8,1768872251.7514648
1768872251759.277,1489.3772893772891,,1,8,1768872251.759277
1768872251767.0898,1488.6446886446886,,1,8,1768872251.7670898
1768872251774.9023,1481.3186813186812,,1,8,1768872251.7749023
1768872251782.7148,1471.7948717948716,,1,8,1768872251.7827148
1768872251790.527,1468.8644688644688,,1,8,1768872251.790527
1768872251798.3398,1465.201465201465,,1,8,1768872251.7983398
1768872251806.1523,1463.7362637362637,,1,8,1768872251.8061523
1768872251813.9648,1456.4102564102564,,1,8,1768872251.8139648
1768872251821.777,1457.875457875458,,1,8,1768872251.821777
1768872251829.5898,1459.3406593406592,,1,8,1768872251.8295898
1768872251837.4023,1460.07326007326,,1,8,1768872251.8374023
1768872251845.2148,1464.4688644688645,,1,8,1768872251.8452148
1768872251853.027,1463.003663003663,,1,8,1768872251.853027
1768872251860.8398,1460.805860805861,,1,8,1768872251.8608398
1768872251868.6523,1457.875457875458,,1,8,1768872251.8686523
1768872251876.4648,1449.8168498168498,,1,8,1768872251.8764648
1768872251884.277,1447.6190476190477,,1,8,1768872251.884277
1768872251892.0898,1441.7582417582416,,1,8,1768872251.8920898
1768872251899.9023,1440.29304029304,,1,8,1768872251.8999023
1768872251907.7148,1436.6300366300366,,1,8,1768872251.9077148
1768872251915.527,1435.8974358974358,,1,8,1768872251.915527
1768872251923.3398,1437.362637362637,,1,8,1768872251.9233398
1768872251931.1523,1438.095238095238,,1,8,1768872251.9311523
1768872251938.9648,1442.4908424908424,,1,8,1768872251.9389648
1768872251946.777,1441.7582417582416,,1,8,1768872251.946777
1768872251954.5898,1449.084249084249,,1,8,1768872251.9545898
1768872251962.4023,1450.5494505494505,,1,8,1768872251.9624023
1768872251970.2148,1453.479853479853,,1,8,1768872251.9702148
1768872251978.027,1448.3516483516482,,1,8,1768872251.978027
1768872251985.8398,1446.8864468864467,,1,8,1768872251.9858398
1768872251993.6523,1447.6190476190477,,1,8,1768872251.9936523
1768872252001.4648,1448.3516483516482,,1,8,1768872252.0014648
1768872252009.277,1443.2234432234432,,1,8,1768872252.009277
1768872252017.0898,1441.0256410256409,,1,8,1768872252.0170898
1768872252024.9023,1433.6996336996335,,1,8,1768872252.0249023
1768872252032.7148,1429.3040293040292,,1,8,1768872252.0327148
1768872252040.527,1423.4432234432234,,1,8,1768872252.040527
1768872252048.3398,1416.8498168498168,,1,8,1768872252.0483398
1768872252056.1523,1415.3846153846152,,1,8,1768872252.0561523
1768872252063.9648,1412.4542124542124,,1,8,1768872252.0639648
1768872252071.777,1419.047619047619,,1,8,1768872252.071777
1768872252079.5898,1420.5128205128203,,1,8,1768872252.0795898
1768872252087.4023,1421.9780219780218,,1,8,1768872252.0874023
1768872252095.2148,1424.9084249084249,,1,8,1768872252.0952148
1768872252103.027,1425.6410256410256,,1,8,1768872252.103027
1768872252110.8398,1430.03663003663,,1,8,1768872252.1108398
1768872252118.6523,1433.6996336996335,,1,8,1768872252.1186523
1768872252126.4648,1441.7582417582416,,1,8,1768872252.1264648
1768872252134.277,1453.479853479853,,1,8,1768872252.134277
1768872252142.0898,1465.9340659340658,,1,8,1768872252.1420898
1768872252149.9023,1484.2490842490845,,1,8,1768872252.1499023
1768872252157.7148,1509.89010989011,,1,8,1768872252.1577148
1768872252165.527,1532.6007326007325,,1,8,1768872252.165527
1768872252173.3398,1550.9157509157508,,1,8,1768872252.1733398
1768872252181.1523,1567.032967032967,,1,8,1768872252.1811523
1768872252188.9648,1578.7545787545787,,1,8,1768872252.1889648
1768872252196.777,1595.6043956043954,,1,8,1768872252.196777
1768872252204.5898,1613.186813186813,,1,8,1768872252.2045898
1768872252212.4023,1625.6410256410256,,1,8,1768872252.2124023
1768872252220.2148,1635.8974358974358,,1,8,1768872252.2202148
1768872252228.027,1647.6190476190477,,1,8,1768872252.228027
1768872252235.8398,1650.5494505494505,,1,8,1768872252.2358398
1768872252243.6523,1650.5494505494505,,1,8,1768872252.2436523
1768872252251.4648,1651.2820512820513,,1,8,1768872252.2514648
1768872252259.277,1646.153846153846,,0,-1,1768872252.259277
1768872252267.0898,1641.0256410256409,,0,-1,1768872252.2670898
1768872252274.9023,1637.362637362637,,0,-1,1768872252.2749023
1768872252282.7148,1629.3040293040292,,0,-1,1768872252.2827148
1768872252290.527,1621.245421245421,,0,-1,1768872252.290527
1768872252298.3398,1615.3846153846152,,0,-1,1768872252.2983398
1768872252306.1523,1603.6630036630036,,0,-1,1768872252.3061523
1768872252313.9648,1588.278388278388,,0,-1,1768872252.3139648
1768872252321.777,1578.7545787545787,,0,-1,1768872252.321777
1768872252329.5898,1570.6959706959706,,0,-1,1768872252.3295898
1768872252337.4023,1566.3003663003662,,0,-1,1768872252.3374023
1768872252345.2148,1567.7655677655678,,0,-1,1768872252.3452148
1768872252353.027,1564.8351648351647,,0,-1,1768872252.353027
1768872252360.8398,1563.3699633699632,,0,-1,1768872252.3608398
1768872252368.6523,1564.102564102564,,0,-1,1768872252.3686523
1768872252376.4648,1559.7069597069597,,0,-1,1768872252.3764648
1768872252384.277,1558.241758241758,,0,-1,1768872252.384277
1768872252392.0898,1553.8461538461538,,0,-1,1768872252.3920898
1768872252399.9023,1547.985347985348,,0,-1,1768872252.3999023
1768872252407.7148,1545.7875457875457,,0,-1,1768872252.4077148
1768872252415.527,1547.2527472527472,,0,-1,1768872252.415527
1768872252423.3398,1548.7179487179485,,0,-1,1768872252.4233398
1768872252431.1523,1547.2527472527472,,0,-1,1768872252.4311523
1768872252438.9648,1547.985347985348,,0,-1,1768872252.4389648
1768872252446.777,1548.7179487179485,,0,-1,1768872252.446777
1768872252454.5898,1547.985347985348,,0,-1,1768872252.4545898
1768872252462.4023,1549.4505494505493,,0,-1,1768872252.4624023
1768872252470.2148,1549.4505494505493,,0,-1,1768872252.4702148
1768872252478.027,1548.7179487179485,,0,-1,1768872252.478027
1768872252485.8398,1550.18315018315,,0,-1,1768872252.4858398
1768872252493.6523,1552.3809523809523,,0,-1,1768872252.4936523
1768872252501.4648,1553.8461538461538,,0,-1,1768872252.5014648
1768872252509.277,1550.18315018315,,0,-1,1768872252.509277
1768872252517.0898,1547.2527472527472,,0,-1,1768872252.5170898
1768872252524.9023,1545.054945054945,,0,-1,1768872252.5249023
1768872252532.7148,1535.5311355311355,,0,-1,1768872252.5327148
1768872252540.527,1528.2051282051282,,0,-1,1768872252.540527
1768872252548.3398,1518.6813186813183,,0,-1,1768872252.5483398
1768872252556.1523,1506.227106227106,,0,-1,1768872252.5561523
1768872252563.9648,1499.6336996336995,,0,-1,1768872252.5639648
1768872252571.777,1492.3076923076922,,0,-1,1768872252.571777
1768872252579.5898,1493.040293040293,,0,-1,1768872252.5795898
1768872252587.4023,1489.3772893772891,,0,-1,1768872252.5874023
1768872252595.2148,1493.040293040293,,0,-1,1768872252.5952148
1768872252603.027,1491.5750915750914,,0,-1,1768872252.603027
1768872252610.8398,1489.3772893772891,,0,-1,1768872252.6108398
1768872252618.6523,1487.179487179487,,0,-1,1768872252.6186523
1768872252626.4648,1476.923076923077,,0,-1,1768872252.6264648
1768872252634.277,1473.992673992674,,0,-1,1768872252.634277
1768872252642.0898,1469.5970695970695,,0,-1,1768872252.6420898
1768872252649.9023,1470.3296703296703,,0,-1,1768872252.6499023
1768872252657.7148,1468.8644688644688,,0,-1,1768872252.6577148
1768872252665.527,1467.3992673992673,,0,-1,1768872252.665527
1768872252673.3398,1471.062271062271,,0,-1,1768872252.6733398
1768872252681.1523,1473.992673992674,,0,-1,1768872252.6811523
1768872252688.9648,1470.3296703296703,,0,-1,1768872252.6889648
1768872252696.777,1463.003663003663,,0,-1,1768872252.696777
1768872252704.5898,1455.6776556776556,,0,-1,1768872252.7045898
1768872252712.4023,1444.688644688645,,0,-1,1768872252.7124023
1768872252720.2148,1433.6996336996335,,0,-1,1768872252.7202148
1768872252728.027,1426.3736263736262,,0,-1,1768872252.728027
1768872252735.8398,1419.7802197802198,,0,-1,1768872252.7358398
1768872252743.6523,1415.3846153846152,,0,-1,1768872252.7436523
1768872252751.4648,1411.7216117216117,,0,-1,1768872252.7514648
1768872252759.277,1408.7912087912086,,0,-1,1768872252.759277
1768872252767.0898,1406.5934065934066,,0,-1,1768872252.7670898
1768872252774.9023,1405.128205128205,,0,-1,1768872252.7749023
1768872252782.7148,1405.128205128205,,0,-1,1768872252.7827148
1768872252790.527,1410.989010989011,,0,-1,1768872252.790527
1768872252798.3398,1421.9780219780218,,0,-1,1768872252.7983398
1768872252806.1523,1435.164835164835,,0,-1,1768872252.8061523
1768872252813.9648,1452.014652014652,,0,-1,1768872252.8139648
1768872252821.777,1471.7948717948716,,0,-1,1768872252.821777
1768872252829.5898,1495.970695970696,,0,-1,1768872252.8295898
1768872252837.4023,1523.8095238095236,,0,-1,1768872252.8374023
1768872252845.2148,1557.5091575091574,,0,-1,1768872252.8452148
1768872252853.027,1586.8131868131868,,0,-1,1768872252.853027
1768872252860.8398,1614.6520146520145,,0,-1,1768872252.8608398
1768872252868.6523,1642.4908424908424,,0,-1,1768872252.8686523
1768872252876.4648,1671.0622710622708,,0,-1,1768872252.8764648
1768872252884.277,1695.970695970696,,0,-1,1768872252.884277
1768872252892.0898,1718.6813186813183,,0,-1,1768872252.8920898
1768872252899.9023,1739.194139194139,,0,-1,1768872252.8999023
1768872252907.7148,1757.5091575091574,,0,-1,1768872252.9077148
1768872252915.527,1771.428571428571,,0,-1,1768872252.915527
1768872252923.3398,1774.358974358974,,0,-1,1768872252.9233398
1768872252931.1523,1773.6263736263736,,0,-1,1768872252.9311523
1768872252938.9648,1774.358974358974,,0,-1,1768872252.9389648
1768872252946.777,1773.6263736263736,,0,-1,1768872252.946777
1768872252954.5898,1770.6959706959706,,0,-1,1768872252.9545898
1768872252962.4023,1766.3003663003662,,0,-1,1768872252.9624023
1768872252970.2148,1764.8351648351647,,0,-1,1768872252.9702148
1768872252978.027,1764.102564102564,,0,-1,1768872252.978027
1768872252985.8398,1756.043956043956,,0,-1,1768872252.9858398
1768872252993.6523,1750.18315018315,,0,-1,1768872252.9936523
1768872253001.4648,1743.5897435897434,,0,-1,1768872253.0014648
1768872253009.277,1732.6007326007325,,0,-1,1768872253.009277
1768872253017.0898,1720.14652014652,,0,-1,1768872253.0170898
1768872253024.9023,1709.8901098901097,,0,-1,1768872253.0249023
1768872253032.7148,1698.168498168498,,0,-1,1768872253.0327148
1768872253040.527,1690.10989010989,,0,-1,1768872253.040527
1768872253048.3398,1686.4468864468863,,0,-1,1768872253.0483398
1768872253056.1523,1687.179487179487,,0,-1,1768872253.0561523
1768872253063.9648,1687.179487179487,,0,-1,1768872253.0639648
1768872253071.777,1684.249084249084,,0,-1,1768872253.071777
1768872253079.5898,1678.3882783882782,,0,-1,1768872253.0795898
1768872253087.4023,1673.992673992674,,0,-1,1768872253.0874023
1768872253095.2148,1670.3296703296703,,0,-1,1768872253.0952148
1768872253103.027,1663.003663003663,,0,-1,1768872253.103027
1768872253110.8398,1654.9450549450548,,0,-1,1768872253.1108398
1768872253118.6523,1646.153846153846,,0,-1,1768872253.1186523
1768872253126.4648,1640.29304029304,,0,-1,1768872253.1264648
1768872253134.277,1631.5018315018317,,0,-1,1768872253.134277
1768872253142.0898,1622.7106227106226,,0,-1,1768872253.1420898
1768872253149.9023,1611.7216117216117,,0,-1,1768872253.1499023
1768872253157.7148,1603.6630036630036,,0,-1,1768872253.1577148
1768872253165.527,1593.4065934065934,,0,-1,1768872253.165527
1768872253173.3398,1589.0109890109889,,0,-1,1768872253.1733398
1768872253181.1523,1590.4761904761904,,0,-1,1768872253.1811523
1768872253188.9648,1590.4761904761904,,0,-1,1768872253.1889648
1768872253196.777,1589.7435897435896,,0,-1,1768872253.196777
1768872253204.5898,1588.278388278388,,0,-1,1768872253.2045898
1768872253212.4023,1589.0109890109889,,0,-1,1768872253.2124023
1768872253220.2148,1593.4065934065934,,0,-1,1768872253.2202148
1768872253228.027,1595.6043956043954,,0,-1,1768872253.228027
1768872253235.8398,1593.4065934065934,,0,-1,1768872253.2358398
1768872253243.6523,1589.0109890109889,,0,-1,1768872253.2436523
1768872253251.4648,1580.9523809523807,,0,-1,1768872253.2514648
1768872253259.277,1571.428571428571,,0,-1,1768872253.259277
1768872253267.0898,1559.7069597069597,,0,-1,1768872253.2670898
1768872253274.9023,1546.5201465201465,,0,-1,1768872253.2749023
1768872253282.7148,1532.6007326007325,,0,-1,1768872253.2827148
1768872253290.527,1523.0769230769229,,0,-1,1768872253.290527
1768872253298.3398,1517.216117216117,,0,-1,1768872253.2983398
1768872253306.1523,1514.2857142857142,,0,-1,1768872253.3061523
1768872253313.9648,1514.2857142857142,,0,-1,1768872253.3139648
1768872253321.777,1512.087912087912,,0,-1,1768872253.321777
1768872253329.5898,1506.9597069597069,,0,-1,1768872253.3295898
1768872253337.4023,1501.8315018315018,,0,-1,1768872253.3374023
1768872253345.2148,1495.2380952380952,,0,-1,1768872253.3452148
1768872253353.027,1489.3772893772891,,0,-1,1768872253.353027
1768872253360.8398,1484.9816849816848,,0,-1,1768872253.3608398
1768872253368.6523,1481.3186813186812,,0,-1,1768872253.3686523
1768872253376.4648,1476.923076923077,,0,-1,1768872253.3764648
1768872253384.277,1471.7948717948716,,0,-1,1768872253.384277
1768872253392.0898,1464.4688644688645,,0,-1,1768872253.3920898
1768872253399.9023,1456.4102564102564,,0,-1,1768872253.3999023
1768872253407.7148,1449.084249084249,,0,-1,1768872253.4077148
1768872253415.527,1442.4908424908424,,0,-1,1768872253.415527
1768872253423.3398,1438.8278388278388,,0,-1,1768872253.4233398
1768872253431.1523,1435.164835164835,,0,-1,1768872253.4311523
1768872253438.9648,1432.2344322344322,,0,-1,1768872253.4389648
1768872253446.777,1429.3040293040292,,0,-1,1768872253.446777
1768872253454.5898,1425.6410256410256,,0,-1,1768872253.4545898
1768872253462.4023,1421.245421245421,,0,-1,1768872253.4624023
1768872253470.2148,1419.7802197802198,,0,-1,1768872253.4702148
1768872253478.027,1421.9780219780218,,0,-1,1768872253.478027
1768872253485.8398,1426.3736263736262,,0,-1,1768872253.4858398
1768872253493.6523,1432.2344322344322,,1,9,1768872253.4936523
1768872253501.4648,1437.362637362637,,1,9,1768872253.5014648
1768872253509.277,1437.362637362637,,1,9,1768872253.509277
1768872253517.0898,1447.6190476190477,,1,9,1768872253.5170898
1768872253524.9023,1456.4102564102564,,1,9,1768872253.5249023
1768872253532.7148,1472.5274725274724,,1,9,1768872253.5327148
1768872253540.527,1490.8424908424906,,1,9,1768872253.540527
1768872253548.3398,1511.3553113553112,,1,9,1768872253.5483398
1768872253556.1523,1533.3333333333333,,1,9,1768872253.5561523
1768872253563.9648,1555.311355311355,,1,9,1768872253.5639648
1768872253571.777,1579.4871794871794,,1,9,1768872253.571777
1768872253579.5898,1605.8608058608058,,1,9,1768872253.5795898
1768872253587.4023,1635.8974358974358,,1,9,1768872253.5874023
1768872253595.2148,1665.201465201465,,1,9,1768872253.5952148
1768872253603.027,1693.7728937728937,,1,9,1768872253.603027
1768872253610.8398,1720.14652014652,,1,9,1768872253.6108398
1768872253618.6523,1745.7875457875457,,1,9,1768872253.6186523
1768872253626.4648,1769.9633699633698,,1,9,1768872253.6264648
1768872253634.277,1790.4761904761904,,1,9,1768872253.634277
1768872253642.0898,1805.128205128205,,1,9,1768872253.6420898
1768872253649.9023,1815.3846153846152,,1,9,1768872253.6499023
1768872253657.7148,1819.047619047619,,1,9,1768872253.6577148
1768872253665.527,1821.245421245421,,1,9,1768872253.665527
1768872253673.3398,1820.5128205128203,,1,9,1768872253.6733398
1768872253681.1523,1818.3150183150185,,1,9,1768872253.6811523
1768872253688.9648,1810.2564102564104,,1,9,1768872253.6889648
1768872253696.777,1801.4652014652013,,1,9,1768872253.696777
1768872253704.5898,1788.278388278388,,1,9,1768872253.7045898
1768872253712.4023,1772.8937728937728,,1,9,1768872253.7124023
1768872253720.2148,1759.7069597069597,,1,9,1768872253.7202148
1768872253728.027,1746.5201465201465,,1,9,1768872253.728027
1768872253735.8398,1729.6703296703297,,1,9,1768872253.7358398
1768872253743.6523,1712.8205128205127,,1,9,1768872253.7436523
1768872253751.4648,1692.3076923076922,,1,9,1768872253.7514648
1768872253759.277,1669.5970695970695,,1,9,1768872253.759277
1768872253767.0898,1648.3516483516482,,1,9,1768872253.7670898
1768872253774.9023,1628.5714285714284,,1,9,1768872253.7749023
1768872253782.7148,1613.9194139194135,,1,9,1768872253.7827148
1768872253790.527,1602.9304029304028,,1,9,1768872253.790527
1768872253798.3398,1597.8021978021975,,1,9,1768872253.7983398
1768872253806.1523,1593.4065934065934,,1,9,1768872253.8061523
1768872253813.9648,1587.545787545787,,1,9,1768872253.8139648
1768872253821.777,1579.4871794871794,,1,9,1768872253.821777
1768872253829.5898,1572.8937728937728,,1,9,1768872253.8295898
1768872253837.4023,1567.032967032967,,1,9,1768872253.8374023
1768872253845.2148,1561.1721611721612,,1,9,1768872253.8452148
1768872253853.027,1557.5091575091574,,1,9,1768872253.853027
1768872253860.8398,1553.8461538461538,,1,9,1768872253.8608398
1768872253868.6523,1547.985347985348,,1,9,1768872253.8686523
1768872253876.4648,1544.3223443223442,,1,9,1768872253.8764648
1768872253884.277,1539.194139194139,,1,9,1768872253.884277
1768872253892.0898,1534.7985347985348,,1,9,1768872253.8920898
1768872253899.9023,1535.5311355311355,,1,9,1768872253.8999023
1768872253907.7148,1535.5311355311355,,1,9,1768872253.9077148
1768872253915.527,1536.9963369963368,,1,9,1768872253.915527
1768872253923.3398,1538.4615384615383,,1,9,1768872253.9233398
1768872253931.1523,1535.5311355311355,,1,9,1768872253.9311523
1768872253938.9648,1531.135531135531,,1,9,1768872253.9389648
1768872253946.777,1526.007326007326,,1,9,1768872253.946777
1768872253954.5898,1518.6813186813183,,1,9,1768872253.9545898
1768872253962.4023,1509.1575091575091,,1,9,1768872253.9624023
1768872253970.2148,1497.4358974358972,,1,9,1768872253.9702148
1768872253978.027,1484.2490842490845,,1,9,1768872253.978027
1768872253985.8398,1470.3296703296703,,1,9,1768872253.9858398
1768872253993.6523,1457.142857142857,,1,9,1768872253.9936523
1768872254001.4648,1444.688644688645,,1,9,1768872254.0014648
1768872254009.277,1433.6996336996335,,1,9,1768872254.009277
1768872254017.0898,1424.175824175824,,1,9,1768872254.0170898
1768872254024.9329,1421.245421245421,,1,9,1768872254.0249329
1768872254032.7148,1415.3846153846152,,1,9,1768872254.0327148
1768872254040.527,1411.7216117216117,,1,9,1768872254.040527
1768872254048.3398,1404.3956043956043,,1,9,1768872254.0483398
1768872254056.1523,1397.069597069597,,1,9,1768872254.0561523
1768872254063.9648,1389.7435897435896,,1,9,1768872254.0639648
1768872254071.777,1382.4175824175825,,1,9,1768872254.071777
1768872254079.5898,1379.4871794871794,,1,9,1768872254.0795898
1768872254087.4023,1381.6849816849815,,1,9,1768872254.0874023
1768872254095.2148,1384.6153846153843,,1,9,1768872254.0952148
1768872254103.027,1386.080586080586,,1,9,1768872254.103027
1768872254110.8398,1386.8131868131868,,1,9,1768872254.1108398
1768872254118.6523,1386.080586080586,,1,9,1768872254.1186523
1768872254126.4648,1387.5457875457876,,1,9,1768872254.1264648
1768872254134.277,1387.5457875457876,,1,9,1768872254.134277
1768872254142.0898,1382.4175824175825,,1,9,1768872254.1420898
1768872254149.9023,1378.021978021978,,1,9,1768872254.1499023
1768872254157.7148,1372.8937728937728,,1,9,1768872254.1577148
1768872254165.527,1364.8351648351647,,1,9,1768872254.165527
1768872254173.3398,1354.5787545787546,,1,9,1768872254.1733398
1768872254181.1523,1345.7875457875457,,1,9,1768872254.1811523
1768872254188.9648,1339.92673992674,,1,9,1768872254.1889648
1768872254196.777,1330.4029304029302,,1,9,1768872254.196777
1768872254204.5898,1317.216117216117,,1,9,1768872254.2045898
1768872254212.4023,1304.7619047619046,,1,9,1768872254.2124023
1768872254220.2148,1294.5054945054944,,1,9,1768872254.2202148
1768872254228.027,1287.179487179487,,1,9,1768872254.228027
