Shimmer_6815_Timestamp_Unix_CAL,Shimmer_6815_PPG_A13_CAL,Unnamed: 2,inhale,inhale_id,epoch_sec
1768787840053.5278,19.780219780219777,,1,0,1768787840.0535278
1768787840061.3403,114.28571428571428,,1,0,1768787840.0613403
1768787840069.1528,243.2234432234432,,1,0,1768787840.0691528
1768787840076.965,383.8827838827839,,1,0,1768787840.076965
1768787840084.7778,521.6117216117216,,1,0,1768787840.0847778
1768787840092.5903,649.8168498168498,,1,0,1768787840.0925903
1768787840100.4028,767.7655677655678,,1,0,1768787840.1004028
1768787840108.215,874.7252747252746,,1,0,1768787840.108215
1768787840116.0278,966.3003663003662,,1,0,1768787840.1160278
1768787840123.8403,1043.956043956044,,1,0,1768787840.1238403
1768787840131.6528,1112.087912087912,,1,0,1768787840.1316528
1768787840139.465,1168.4981684981683,,1,0,1768787840.139465
1768787840147.2778,1210.989010989011,,1,0,1768787840.1472778
1768787840155.0903,1243.2234432234432,,1,0,1768787840.1550903
1768787840162.9028,1270.3296703296703,,1,0,1768787840.1629028
1768787840170.715,1291.5750915750914,,1,0,1768787840.170715
1768787840178.5278,1308.4249084249084,,1,0,1768787840.1785278
1768787840186.3403,1320.14652014652,,1,0,1768787840.1863403
1768787840194.1528,1331.135531135531,,1,0,1768787840.1941528
1768787840201.965,1337.7289377289376,,1,0,1768787840.201965
1768787840209.7778,1340.6593406593406,,1,0,1768787840.2097778
1768787840217.5903,1339.92673992674,,1,0,1768787840.2175903
1768787840225.4028,1334.065934065934,,1,0,1768787840.2254028
1768787840233.215,1328.2051282051282,,1,0,1768787840.233215
1768787840241.0278,1323.076923076923,,1,0,1768787840.2410278
1768787840248.8403,1320.14652014652,,1,0,1768787840.2488403
1768787840256.6528,1317.9487179487178,,1,0,1768787840.2566528
1768787840264.465,1316.4835164835165,,1,0,1768787840.264465
1768787840272.2778,1313.5531135531137,,1,0,1768787840.2722778
1768787840280.0903,1306.9597069597069,,1,0,1768787840.2800903
1768787840287.9028,1298.9010989010987,,1,0,1768787840.2879028
1768787840295.715,1297.4358974358977,,1,0,1768787840.295715
1768787840303.5278,1298.9010989010987,,1,0,1768787840.3035278
1768787840311.3403,1296.7032967032967,,1,0,1768787840.3113403
1768787840319.1528,1290.8424908424909,,1,0,1768787840.3191528
1768787840326.965,1282.051282051282,,1,0,1768787840.326965
1768787840334.7778,1275.4578754578754,,1,0,1768787840.3347778
1768787840342.5903,1271.062271062271,,1,0,1768787840.3425903
1768787840350.4028,1270.3296703296703,,1,0,1768787840.3504028
1768787840358.215,1271.062271062271,,1,0,1768787840.358215
1768787840366.0278,1272.5274725274724,,1,0,1768787840.3660278
1768787840373.8403,1276.190476190476,,1,0,1768787840.3738403
1768787840381.6528,1282.051282051282,,1,0,1768787840.3816528
1768787840389.465,1284.2490842490845,,1,0,1768787840.389465
1768787840397.2778,1287.9120879120878,,1,0,1768787840.3972778
1768787840405.0903,1293.7728937728937,,1,0,1768787840.4050903
1768787840412.9028,1298.9010989010987,,1,0,1768787840.4129028
1768787840420.715,1301.8315018315018,,1,0,1768787840.420715
1768787840428.5278,1307.6923076923076,,1,0,1768787840.4285278
1768787840436.3403,1313.5531135531137,,1,0,1768787840.4363403
1768787840444.1528,1312.8205128205127,,1,0,1768787840.4441528
1768787840451.965,1310.6227106227104,,1,0,1768787840.451965
1768787840459.7778,1309.89010989011,,1,0,1768787840.4597778
1768787840467.5903,1307.6923076923076,,1,0,1768787840.4675903
1768787840475.4028,1299.6336996336995,,1,0,1768787840.4754028
1768787840483.215,1291.5750915750914,,1,0,1768787840.483215
1768787840491.0278,1289.3772893772891,,1,0,1768787840.4910278
1768787840498.8403,1290.10989010989,,1,0,1768787840.4988403
1768787840506.6528,1293.040293040293,,1,0,1768787840.5066528
1768787840514.465,1293.040293040293,,1,0,1768787840.514465
1768787840522.2778,1293.7728937728937,,1,0,1768787840.5222778
1768787840530.0903,1298.9010989010987,,1,0,1768787840.5300903
1768787840537.9028,1301.8315018315018,,1,0,1768787840.5379028
1768787840545.715,1304.7619047619046,,1,0,1768787840.545715
1768787840553.5278,1306.9597069597069,,1,0,1768787840.5535278
1768787840561.3403,1309.1575091575091,,1,0,1768787840.5613403
1768787840569.1528,1308.4249084249084,,1,0,1768787840.5691528
1768787840576.965,1302.5641025641023,,1,0,1768787840.576965
1768787840584.7778,1295.2380952380952,,1,0,1768787840.5847778
1768787840592.5903,1290.10989010989,,1,0,1768787840.5925903
1768787840600.4028,1284.9816849816848,,1,0,1768787840.6004028
1768787840608.215,1278.3882783882782,,1,0,1768787840.608215
1768787840616.0278,1273.260073260073,,1,0,1768787840.6160278
1768787840623.8403,1269.5970695970695,,1,0,1768787840.6238403
1768787840631.6528,1265.9340659340658,,1,0,1768787840.6316528
1768787840639.465,1267.3992673992673,,1,0,1768787840.639465
1768787840647.2778,1271.7948717948716,,1,0,1768787840.6472778
1768787840655.0903,1276.923076923077,,1,0,1768787840.6550903
1768787840662.9028,1286.4468864468863,,1,0,1768787840.6629028
1768787840670.715,1297.4358974358977,,1,0,1768787840.670715
1768787840678.5278,1309.89010989011,,1,0,1768787840.6785278
1768787840686.3403,1312.8205128205127,,1,0,1768787840.6863403
1768787840694.1528,1308.4249084249084,,1,0,1768787840.6941528
1768787840701.965,1303.2967032967033,,1,0,1768787840.701965
1768787840709.7778,1300.3663003663005,,1,0,1768787840.7097778
1768787840717.5903,1298.9010989010987,,1,0,1768787840.7175903
1768787840725.4028,1295.970695970696,,1,0,1768787840.7254028
1768787840733.215,1295.2380952380952,,1,0,1768787840.733215
1768787840741.0278,1303.2967032967033,,1,0,1768787840.7410278
1768787840748.8403,1314.2857142857142,,1,0,1768787840.7488403
1768787840756.6528,1326.739926739927,,1,0,1768787840.7566528
1768787840764.465,1342.857142857143,,1,0,1768787840.764465
1768787840772.2778,1357.5091575091574,,1,0,1768787840.7722778
1768787840780.0903,1365.5677655677655,,1,0,1768787840.7800903
1768787840787.9028,1378.021978021978,,1,0,1768787840.7879028
1768787840795.715,1386.080586080586,,1,0,1768787840.795715
1768787840803.5278,1395.6043956043954,,1,0,1768787840.8035278
1768787840811.3403,1409.5238095238094,,1,0,1768787840.8113403
1768787840819.1528,1414.6520146520145,,1,0,1768787840.8191528
1768787840826.965,1416.8498168498168,,1,0,1768787840.826965
1768787840834.7778,1418.3150183150185,,1,0,1768787840.8347778
1768787840842.5903,1413.1868131868132,,1,0,1768787840.8425903
1768787840850.433,1407.3260073260071,,1,0,1768787840.850433
1768787840858.215,1405.128205128205,,1,0,1768787840.858215
1768787840866.0278,1399.2673992673992,,1,0,1768787840.8660278
1768787840873.8403,1400.0,,1,0,1768787840.8738403
1768787840881.6528,1405.128205128205,,1,0,1768787840.8816528
1768787840889.465,1409.5238095238094,,1,0,1768787840.889465
1768787840897.2778,1417.5824175824175,,1,0,1768787840.8972778
1768787840905.0903,1427.106227106227,,1,0,1768787840.9050903
1768787840912.9028,1430.03663003663,,1,0,1768787840.9129028
1768787840920.715,1431.5018315018317,,1,0,1768787840.920715
1768787840928.5278,1433.6996336996335,,1,0,1768787840.9285278
1768787840936.3403,1432.9670329670328,,1,0,1768787840.9363403
1768787840944.1528,1426.3736263736262,,1,0,1768787840.9441528
1768787840951.965,1425.6410256410256,,1,0,1768787840.951965
1768787840959.7778,1420.5128205128203,,1,0,1768787840.9597778
1768787840967.5903,1415.3846153846152,,1,0,1768787840.9675903
1768787840975.4028,1413.1868131868132,,1,0,1768787840.9754028
1768787840983.215,1411.7216117216117,,1,0,1768787840.983215
1768787840991.0278,1406.5934065934066,,1,0,1768787840.9910278
1768787840998.8403,1406.5934065934066,,1,0,1768787840.9988403
1768787841006.6528,1401.4652014652013,,1,0,1768787841.0066528
1768787841014.465,1399.2673992673992,,1,0,1768787841.014465
1768787841022.2778,1401.4652014652013,,1,0,1768787841.0222778
1768787841030.0903,1400.7326007326003,,1,0,1768787841.0300903
1768787841037.9028,1404.3956043956043,,1,0,1768787841.0379028
1768787841045.715,1408.7912087912086,,1,0,1768787841.045715
1768787841053.5278,1411.7216117216117,,1,0,1768787841.0535278
1768787841061.3403,1418.3150183150185,,1,0,1768787841.0613403
1768787841069.1528,1430.03663003663,,1,0,1768787841.0691528
1768787841076.965,1439.5604395604394,,1,0,1768787841.076965
1768787841084.7778,1452.7472527472526,,1,0,1768787841.0847778
1768787841092.5903,1459.3406593406592,,1,0,1768787841.0925903
1768787841100.4028,1462.2710622710622,,1,0,1768787841.1004028
1768787841108.215,1465.201465201465,,1,0,1768787841.108215
1768787841116.0278,1461.5384615384614,,1,0,1768787841.1160278
1768787841123.8403,1453.479853479853,,1,0,1768787841.1238403
1768787841131.6528,1448.3516483516482,,1,0,1768787841.1316528
1768787841139.465,1440.29304029304,,1,0,1768787841.139465
1768787841147.2778,1432.9670329670328,,1,0,1768787841.1472778
1768787841155.0903,1423.4432234432234,,1,0,1768787841.1550903
1768787841162.9028,1413.1868131868132,,1,0,1768787841.1629028
1768787841170.715,1402.9304029304028,,1,0,1768787841.170715
1768787841178.5278,1400.0,,1,0,1768787841.1785278
1768787841186.3403,1390.4761904761904,,1,0,1768787841.1863403
1768787841194.1528,1385.3479853479853,,1,0,1768787841.1941528
1768787841201.965,1380.952380952381,,1,0,1768787841.201965
1768787841209.7778,1375.091575091575,,1,0,1768787841.2097778
1768787841217.5903,1369.9633699633698,,1,0,1768787841.2175903
1768787841225.4028,1363.3699633699632,,1,0,1768787841.2254028
1768787841233.215,1367.032967032967,,1,0,1768787841.233215
1768787841241.0278,1373.6263736263736,,1,0,1768787841.2410278
1768787841248.8403,1376.5567765567764,,1,0,1768787841.2488403
1768787841256.6528,1378.7545787545787,,1,0,1768787841.2566528
1768787841264.465,1383.150183150183,,1,0,1768787841.264465
1768787841272.2778,1386.080586080586,,1,0,1768787841.2722778
1768787841280.0903,1394.8717948717947,,1,0,1768787841.2800903
1768787841287.9028,1397.8021978021975,,1,0,1768787841.2879028
1768787841295.715,1401.4652014652013,,1,0,1768787841.295715
1768787841303.5278,1400.7326007326003,,1,0,1768787841.3035278
1768787841311.3403,1401.4652014652013,,1,0,1768787841.3113403
1768787841319.1528,1394.139194139194,,1,0,1768787841.3191528
1768787841326.965,1385.3479853479853,,1,0,1768787841.326965
1768787841334.7778,1370.6959706959706,,1,0,1768787841.3347778
1768787841342.5903,1367.032967032967,,1,0,1768787841.3425903
1768787841350.4028,1360.4395604395604,,1,0,1768787841.3504028
1768787841358.215,1359.7069597069597,,1,0,1768787841.358215
1768787841366.0278,1358.241758241758,,1,0,1768787841.3660278
1768787841373.8403,1356.7765567765566,,1,0,1768787841.3738403
1768787841381.6528,1351.6483516483515,,1,0,1768787841.3816528
1768787841389.465,1353.113553113553,,1,0,1768787841.389465
1768787841397.2778,1349.4505494505493,,1,0,1768787841.3972778
1768787841405.0903,1348.7179487179487,,1,0,1768787841.4050903
1768787841412.9028,1345.7875457875457,,1,0,1768787841.4129028
1768787841420.715,1342.124542124542,,1,0,1768787841.420715
1768787841428.5278,1339.92673992674,,1,0,1768787841.4285278
1768787841436.3403,1336.263736263736,,1,0,1768787841.4363403
1768787841444.1528,1334.7985347985348,,1,0,1768787841.4441528
1768787841451.965,1333.3333333333333,,1,0,1768787841.451965
1768787841459.7778,1328.937728937729,,1,0,1768787841.4597778
1768787841467.5903,1327.4725274725274,,1,0,1768787841.4675903
1768787841475.4028,1323.8095238095236,,1,0,1768787841.4754028
1768787841483.215,1322.3443223443223,,1,0,1768787841.483215
1768787841491.0278,1323.8095238095236,,1,0,1768787841.4910278
1768787841498.8403,1323.8095238095236,,1,0,1768787841.4988403
1768787841506.6528,1326.007326007326,,1,0,1768787841.5066528
1768787841514.465,1328.2051282051282,,1,0,1768787841.514465
1768787841522.2778,1325.2747252747251,,1,0,1768787841.5222778
1768787841530.0903,1327.4725274725274,,1,0,1768787841.5300903
1768787841537.9028,1331.135531135531,,1,0,1768787841.5379028
1768787841545.715,1332.6007326007325,,1,0,1768787841.545715
1768787841553.5278,1341.3919413919414,,1,0,1768787841.5535278
1768787841561.3403,1344.3223443223442,,1,0,1768787841.5613403
1768787841569.1528,1343.5897435897434,,1,0,1768787841.5691528
1768787841576.965,1344.3223443223442,,1,0,1768787841.576965
1768787841584.7778,1342.124542124542,,1,0,1768787841.5847778
1768787841592.5903,1337.7289377289376,,1,0,1768787841.5925903
1768787841600.4028,1338.4615384615383,,1,0,1768787841.6004028
1768787841608.215,1334.065934065934,,1,0,1768787841.608215
1768787841616.0278,1334.065934065934,,1,0,1768787841.6160278
1768787841623.8403,1335.5311355311355,,1,0,1768787841.6238403
1768787841631.6528,1334.7985347985348,,1,0,1768787841.6316528
1768787841639.465,1333.3333333333333,,1,0,1768787841.639465
1768787841647.2778,1336.9963369963368,,1,0,1768787841.6472778
1768787841655.0903,1344.3223443223442,,1,0,1768787841.6550903
1768787841662.9028,1351.6483516483515,,1,0,1768787841.6629028
1768787841670.715,1361.1721611721612,,1,0,1768787841.670715
1768787841678.5278,1364.8351648351647,,1,0,1768787841.6785278
1768787841686.3403,1369.9633699633698,,1,0,1768787841.6863403
1768787841694.1528,1376.5567765567764,,1,0,1768787841.6941528
1768787841701.965,1382.4175824175825,,1,0,1768787841.701965
1768787841709.7778,1387.5457875457876,,1,0,1768787841.7097778
1768787841717.5903,1391.2087912087911,,1,0,1768787841.7175903
1768787841725.4028,1397.8021978021975,,1,0,1768787841.7254028
1768787841733.215,1409.5238095238094,,1,0,1768787841.733215
1768787841741.0278,1420.5128205128203,,1,0,1768787841.7410278
1768787841748.8403,1427.8388278388277,,1,0,1768787841.7488403
1768787841756.6528,1437.362637362637,,1,0,1768787841.7566528
1768787841764.465,1446.8864468864467,,1,0,1768787841.764465
1768787841772.2778,1454.212454212454,,1,0,1768787841.7722778
1768787841780.0903,1457.875457875458,,1,0,1768787841.7800903
1768787841787.9028,1460.805860805861,,1,0,1768787841.7879028
1768787841795.715,1460.805860805861,,1,0,1768787841.795715
1768787841803.5278,1462.2710622710622,,1,0,1768787841.8035278
1768787841811.3403,1462.2710622710622,,1,0,1768787841.8113403
1768787841819.1528,1457.875457875458,,1,0,1768787841.8191528
1768787841826.965,1452.014652014652,,1,0,1768787841.826965
1768787841834.7778,1449.084249084249,,1,0,1768787841.8347778
1768787841842.5903,1443.956043956044,,1,0,1768787841.8425903
1768787841850.4028,1439.5604395604394,,1,0,1768787841.8504028
1768787841858.215,1436.6300366300366,,1,0,1768787841.858215
1768787841866.0278,1432.2344322344322,,1,0,1768787841.8660278
1768787841873.8403,1430.03663003663,,1,0,1768787841.8738403
1768787841881.6528,1427.106227106227,,1,0,1768787841.8816528
1768787841889.465,1423.4432234432234,,1,0,1768787841.889465
1768787841897.2778,1416.8498168498168,,1,0,1768787841.8972778
1768787841905.0903,1408.7912087912086,,1,0,1768787841.9050903
1768787841912.9028,1401.4652014652013,,1,0,1768787841.9129028
1768787841920.715,1397.8021978021975,,1,0,1768787841.920715
1768787841928.5278,1400.0,,1,0,1768787841.9285278
1768787841936.3403,1405.128205128205,,1,0,1768787841.9363403
1768787841944.1528,1410.2564102564102,,1,0,1768787841.9441528
1768787841951.965,1413.9194139194135,,1,0,1768787841.951965
1768787841959.7778,1416.8498168498168,,1,0,1768787841.9597778
1768787841967.5903,1416.8498168498168,,1,0,1768787841.9675903
1768787841975.4028,1416.117216117216,,1,0,1768787841.9754028
1768787841983.215,1413.9194139194135,,1,0,1768787841.983215
1768787841991.0278,1411.7216117216117,,1,0,1768787841.9910278
1768787841998.8403,1408.058608058608,,1,0,1768787841.9988403
1768787842006.6528,1402.9304029304028,,1,0,1768787842.0066528
1768787842014.465,1397.069597069597,,1,0,1768787842.014465
1768787842022.2778,1390.4761904761904,,1,0,1768787842.0222778
1768787842030.0903,1384.6153846153843,,1,0,1768787842.0300903
1768787842037.9028,1380.2197802197802,,1,0,1768787842.0379028
1768787842045.715,1375.8241758241757,,1,0,1768787842.045715
1768787842053.5278,1372.8937728937728,,1,0,1768787842.0535278
1768787842061.3403,1364.102564102564,,1,0,1768787842.0613403
1768787842069.1528,1358.974358974359,,1,0,1768787842.0691528
1768787842076.965,1357.5091575091574,,1,0,1768787842.076965
1768787842084.7778,1356.7765567765566,,1,0,1768787842.0847778
1768787842092.5903,1356.7765567765566,,1,0,1768787842.0925903
1768787842100.4028,1355.311355311355,,1,0,1768787842.1004028
1768787842108.215,1349.4505494505493,,1,0,1768787842.108215
1768787842116.0278,1341.3919413919414,,1,0,1768787842.1160278
1768787842123.8403,1334.7985347985348,,1,0,1768787842.1238403
1768787842131.6528,1329.6703296703297,,1,0,1768787842.1316528
1768787842139.465,1331.135531135531,,1,0,1768787842.139465
1768787842147.2778,1331.8681318681315,,1,0,1768787842.1472778
1768787842155.0903,1333.3333333333333,,1,0,1768787842.1550903
1768787842162.9028,1331.135531135531,,0,-1,1768787842.1629028
1768787842170.715,1328.2051282051282,,0,-1,1768787842.170715
1768787842178.5278,1325.2747252747251,,0,-1,1768787842.1785278
1768787842186.3403,1323.076923076923,,0,-1,1768787842.1863403
1768787842194.1528,1324.5421245421244,,0,-1,1768787842.1941528
1768787842201.965,1328.937728937729,,0,-1,1768787842.201965
1768787842209.7778,1331.135531135531,,0,-1,1768787842.2097778
1768787842217.5903,1328.2051282051282,,0,-1,1768787842.2175903
1768787842225.4028,1326.739926739927,,0,-1,1768787842.2254028
1768787842233.215,1321.6117216117216,,0,-1,1768787842.233215
1768787842241.0278,1317.9487179487178,,0,-1,1768787842.2410278
1768787842248.8403,1315.018315018315,,0,-1,1768787842.2488403
1768787842256.6528,1312.087912087912,,0,-1,1768787842.2566528
1768787842264.465,1309.89010989011,,0,-1,1768787842.264465
1768787842272.2778,1309.89010989011,,0,-1,1768787842.2722778
1768787842280.0903,1310.6227106227104,,0,-1,1768787842.2800903
1768787842287.9028,1313.5531135531137,,0,-1,1768787842.2879028
1768787842295.715,1314.2857142857142,,0,-1,1768787842.295715
1768787842303.5278,1314.2857142857142,,0,-1,1768787842.3035278
1768787842311.3403,1312.8205128205127,,0,-1,1768787842.3113403
1768787842319.1528,1312.8205128205127,,0,-1,1768787842.3191528
1768787842326.965,1309.89010989011,,0,-1,1768787842.326965
1768787842334.7778,1306.227106227106,,0,-1,1768787842.3347778
1768787842342.5903,1301.098901098901,,0,-1,1768787842.3425903
1768787842350.4028,1296.7032967032967,,0,-1,1768787842.3504028
1768787842358.215,1295.2380952380952,,0,-1,1768787842.358215
1768787842366.0278,1293.7728937728937,,0,-1,1768787842.3660278
1768787842373.8403,1295.2380952380952,,0,-1,1768787842.3738403
1768787842381.6528,1291.5750915750914,,0,-1,1768787842.3816528
1768787842389.465,1287.9120879120878,,0,-1,1768787842.389465
1768787842397.2778,1282.7838827838827,,0,-1,1768787842.3972778
1768787842405.0903,1279.8534798534797,,0,-1,1768787842.4050903
1768787842412.9028,1276.190476190476,,0,-1,1768787842.4129028
1768787842420.715,1270.3296703296703,,0,-1,1768787842.420715
1768787842428.5278,1263.003663003663,,0,-1,1768787842.4285278
1768787842436.3403,1254.9450549450548,,0,-1,1768787842.4363403
1768787842444.1528,1247.6190476190477,,0,-1,1768787842.4441528
1768787842451.965,1241.7582417582416,,0,-1,1768787842.451965
1768787842459.7778,1238.8278388278388,,0,-1,1768787842.4597778
1768787842467.5903,1239.5604395604396,,0,-1,1768787842.4675903
1768787842475.4028,1241.7582417582416,,0,-1,1768787842.4754028
1768787842483.215,1241.0256410256409,,0,-1,1768787842.483215
1768787842491.0278,1240.29304029304,,0,-1,1768787842.4910278
1768787842498.8403,1239.5604395604396,,0,-1,1768787842.4988403
1768787842506.6528,1243.956043956044,,0,-1,1768787842.5066528
1768787842514.465,1253.479853479853,,0,-1,1768787842.514465
1768787842522.2778,1265.9340659340658,,0,-1,1768787842.5222778
1768787842530.0903,1279.8534798534797,,0,-1,1768787842.5300903
1768787842537.9028,1293.7728937728937,,0,-1,1768787842.5379028
1768787842545.715,1306.9597069597069,,0,-1,1768787842.545715
1768787842553.5278,1320.14652014652,,0,-1,1768787842.5535278
1768787842561.3403,1333.3333333333333,,0,-1,1768787842.5613403
1768787842569.1528,1343.5897435897434,,0,-1,1768787842.5691528
1768787842576.965,1351.6483516483515,,0,-1,1768787842.576965
1768787842584.7778,1356.043956043956,,0,-1,1768787842.5847778
1768787842592.5903,1358.241758241758,,0,-1,1768787842.5925903
1768787842600.4028,1360.4395604395604,,0,-1,1768787842.6004028
1768787842608.215,1358.974358974359,,0,-1,1768787842.608215
1768787842616.0278,1356.043956043956,,0,-1,1768787842.6160278
1768787842623.8403,1355.311355311355,,0,-1,1768787842.6238403
1768787842631.6528,1352.3809523809523,,0,-1,1768787842.6316528
1768787842639.465,1348.7179487179487,,0,-1,1768787842.639465
1768787842647.2778,1347.2527472527472,,0,-1,1768787842.6472778
1768787842655.0903,1347.985347985348,,0,-1,1768787842.6550903
1768787842662.9028,1350.9157509157508,,0,-1,1768787842.6629028
1768787842670.715,1356.7765567765566,,0,-1,1768787842.670715
1768787842678.5278,1369.230769230769,,0,-1,1768787842.6785278
1768787842686.3403,1374.3589743589744,,0,-1,1768787842.6863403
1768787842694.1528,1376.5567765567764,,0,-1,1768787842.6941528
1768787842701.965,1378.021978021978,,0,-1,1768787842.701965
1768787842709.7778,1378.7545787545787,,0,-1,1768787842.7097778
1768787842717.5903,1377.2893772893772,,0,-1,1768787842.7175903
1768787842725.4028,1372.8937728937728,,0,-1,1768787842.7254028
1768787842733.215,1367.7655677655678,,0,-1,1768787842.733215
1768787842741.0278,1367.7655677655678,,0,-1,1768787842.7410278
1768787842748.8403,1366.3003663003662,,0,-1,1768787842.7488403
1768787842756.6528,1361.904761904762,,0,-1,1768787842.7566528
1768787842764.465,1358.974358974359,,0,-1,1768787842.764465
1768787842772.2778,1358.974358974359,,0,-1,1768787842.7722778
1768787842780.0903,1358.241758241758,,0,-1,1768787842.7800903
1768787842787.9028,1356.043956043956,,0,-1,1768787842.7879028
1768787842795.715,1355.311355311355,,0,-1,1768787842.795715
1768787842803.5278,1353.113553113553,,0,-1,1768787842.8035278
1768787842811.3403,1347.985347985348,,0,-1,1768787842.8113403
1768787842819.1528,1343.5897435897434,,0,-1,1768787842.8191528
1768787842826.965,1342.857142857143,,0,-1,1768787842.826965
1768787842834.7778,1337.7289377289376,,0,-1,1768787842.8347778
1768787842842.5903,1332.6007326007325,,0,-1,1768787842.8425903
1768787842850.4028,1333.3333333333333,,0,-1,1768787842.8504028
1768787842858.215,1334.065934065934,,0,-1,1768787842.858215
1768787842866.0278,1334.065934065934,,0,-1,1768787842.8660278
1768787842873.8403,1334.7985347985348,,0,-1,1768787842.8738403
1768787842881.6528,1339.92673992674,,0,-1,1768787842.8816528
1768787842889.465,1342.124542124542,,0,-1,1768787842.889465
1768787842897.2778,1345.7875457875457,,0,-1,1768787842.8972778
1768787842905.0903,1347.985347985348,,0,-1,1768787842.9050903
1768787842912.9028,1344.3223443223442,,0,-1,1768787842.9129028
1768787842920.715,1339.194139194139,,0,-1,1768787842.920715
1768787842928.5278,1337.7289377289376,,0,-1,1768787842.9285278
1768787842936.3403,1334.7985347985348,,0,-1,1768787842.9363403
1768787842944.1528,1331.135531135531,,0,-1,1768787842.9441528
1768787842951.965,1331.8681318681315,,0,-1,1768787842.951965
1768787842959.7778,1331.135531135531,,0,-1,1768787842.9597778
1768787842967.5903,1328.2051282051282,,0,-1,1768787842.9675903
1768787842975.4028,1323.8095238095236,,0,-1,1768787842.9754028
1768787842983.215,1325.2747252747251,,0,-1,1768787842.983215
1768787842991.0278,1328.2051282051282,,0,-1,1768787842.9910278
1768787842998.8403,1334.7985347985348,,0,-1,1768787842.9988403
1768787843006.6528,1336.9963369963368,,0,-1,1768787843.0066528
1768787843014.465,1337.7289377289376,,0,-1,1768787843.014465
1768787843022.2778,1338.4615384615383,,0,-1,1768787843.0222778
1768787843030.0903,1340.6593406593406,,0,-1,1768787843.0300903
1768787843037.9028,1340.6593406593406,,0,-1,1768787843.0379028
1768787843045.715,1336.9963369963368,,0,-1,1768787843.045715
1768787843053.5278,1331.8681318681315,,0,-1,1768787843.0535278
1768787843061.3403,1323.8095238095236,,0,-1,1768787843.0613403
1768787843069.1528,1313.5531135531137,,0,-1,1768787843.0691528
1768787843076.965,1307.6923076923076,,0,-1,1768787843.076965
1768787843084.7778,1305.4945054945051,,0,-1,1768787843.0847778
1768787843092.5903,1312.8205128205127,,0,-1,1768787843.0925903
1768787843100.4028,1321.6117216117216,,0,-1,1768787843.1004028
1768787843108.215,1323.076923076923,,0,-1,1768787843.108215
1768787843116.0278,1322.3443223443223,,0,-1,1768787843.1160278
1768787843123.8403,1320.8791208791208,,0,-1,1768787843.1238403
1768787843131.6528,1314.2857142857142,,0,-1,1768787843.1316528
1768787843139.465,1306.9597069597069,,0,-1,1768787843.139465
1768787843147.2778,1304.7619047619046,,0,-1,1768787843.1472778
1768787843155.0903,1304.0293040293038,,0,-1,1768787843.1550903
1768787843162.9028,1302.5641025641023,,0,-1,1768787843.1629028
1768787843170.715,1297.4358974358977,,0,-1,1768787843.170715
1768787843178.5278,1295.2380952380952,,0,-1,1768787843.1785278
1768787843186.3403,1295.970695970696,,0,-1,1768787843.1863403
1768787843194.1528,1295.970695970696,,0,-1,1768787843.1941528
1768787843201.965,1296.7032967032967,,0,-1,1768787843.201965
1768787843209.7778,1301.098901098901,,0,-1,1768787843.2097778
1768787843217.5903,1301.8315018315018,,0,-1,1768787843.2175903
1768787843225.4028,1298.9010989010987,,0,-1,1768787843.2254028
1768787843233.215,1295.970695970696,,0,-1,1768787843.233215
1768787843241.0278,1292.3076923076922,,0,-1,1768787843.2410278
1768787843248.8403,1287.9120879120878,,0,-1,1768787843.2488403
1768787843256.6528,1286.4468864468863,,0,-1,1768787843.2566528
1768787843264.465,1287.9120879120878,,0,-1,1768787843.264465
1768787843272.2778,1292.3076923076922,,0,-1,1768787843.2722778
1768787843280.0903,1297.4358974358977,,0,-1,1768787843.2800903
1768787843287.9028,1295.970695970696,,0,-1,1768787843.2879028
1768787843295.715,1293.040293040293,,0,-1,1768787843.295715
1768787843303.5278,1292.3076923076922,,0,-1,1768787843.3035278
1768787843311.3403,1296.7032967032967,,0,-1,1768787843.3113403
1768787843319.1528,1297.4358974358977,,0,-1,1768787843.3191528
1768787843326.965,1301.8315018315018,,0,-1,1768787843.326965
1768787843334.7778,1306.227106227106,,0,-1,1768787843.3347778
1768787843342.5903,1309.89010989011,,0,-1,1768787843.3425903
1768787843350.4028,1310.6227106227104,,0,-1,1768787843.3504028
1768787843358.215,1304.0293040293038,,0,-1,1768787843.358215
1768787843366.0278,1300.3663003663005,,0,-1,1768787843.3660278
1768787843373.8403,1298.168498168498,,0,-1,1768787843.3738403
1768787843381.6528,1295.2380952380952,,0,-1,1768787843.3816528
1768787843389.465,1300.3663003663005,,0,-1,1768787843.389465
1768787843397.2778,1306.9597069597069,,0,-1,1768787843.3972778
1768787843405.0903,1315.018315018315,,0,-1,1768787843.4050903
1768787843412.9028,1331.135531135531,,0,-1,1768787843.4129028
1768787843420.715,1342.857142857143,,0,-1,1768787843.420715
1768787843428.5278,1357.5091575091574,,0,-1,1768787843.4285278
1768787843436.3403,1369.9633699633698,,0,-1,1768787843.4363403
1768787843444.1528,1375.091575091575,,0,-1,1768787843.4441528
1768787843451.965,1381.6849816849815,,0,-1,1768787843.451965
1768787843459.7778,1384.6153846153843,,0,-1,1768787843.4597778
1768787843467.5903,1393.4065934065934,,0,-1,1768787843.4675903
1768787843475.4028,1394.139194139194,,0,-1,1768787843.4754028
1768787843483.215,1398.5347985347985,,0,-1,1768787843.483215
1768787843491.0278,1404.3956043956043,,0,-1,1768787843.4910278
1768787843498.8403,1408.7912087912086,,0,-1,1768787843.4988403
1768787843506.6528,1412.4542124542124,,0,-1,1768787843.5066528
1768787843514.465,1413.1868131868132,,0,-1,1768787843.514465
1768787843522.2778,1419.047619047619,,0,-1,1768787843.5222778
1768787843530.0903,1419.7802197802198,,0,-1,1768787843.5300903
1768787843537.9028,1427.106227106227,,0,-1,1768787843.5379028
1768787843545.715,1429.3040293040292,,0,-1,1768787843.545715
1768787843553.5278,1439.5604395604394,,0,-1,1768787843.5535278
1768787843561.3403,1443.2234432234432,,0,-1,1768787843.5613403
1768787843569.1528,1449.084249084249,,0,-1,1768787843.5691528
1768787843576.965,1452.7472527472526,,0,-1,1768787843.576965
1768787843584.7778,1456.4102564102564,,0,-1,1768787843.5847778
1768787843592.5903,1456.4102564102564,,0,-1,1768787843.5925903
1768787843600.4028,1459.3406593406592,,0,-1,1768787843.6004028
1768787843608.215,1460.07326007326,,0,-1,1768787843.608215
1768787843616.0278,1460.805860805861,,0,-1,1768787843.6160278
1768787843623.8403,1455.6776556776556,,0,-1,1768787843.6238403
1768787843631.6528,1453.479853479853,,0,-1,1768787843.6316528
1768787843639.465,1451.2820512820513,,0,-1,1768787843.639465
1768787843647.2778,1448.3516483516482,,0,-1,1768787843.6472778
1768787843655.0903,1442.4908424908424,,0,-1,1768787843.6550903
1768787843662.9028,1430.7692307692307,,0,-1,1768787843.6629028
1768787843670.715,1427.106227106227,,0,-1,1768787843.670715
1768787843678.5278,1423.4432234432234,,0,-1,1768787843.6785278
1768787843686.3403,1424.175824175824,,0,-1,1768787843.6863403
1768787843694.1528,1418.3150183150185,,0,-1,1768787843.6941528
1768787843701.965,1415.3846153846152,,0,-1,1768787843.701965
1768787843709.7778,1408.7912087912086,,0,-1,1768787843.7097778
1768787843717.5903,1402.9304029304028,,0,-1,1768787843.7175903
1768787843725.4028,1396.3369963369962,,0,-1,1768787843.7254028
1768787843733.215,1390.4761904761904,,0,-1,1768787843.733215
1768787843741.0278,1387.5457875457876,,0,-1,1768787843.7410278
1768787843748.8403,1383.150183150183,,0,-1,1768787843.7488403
1768787843756.6528,1386.8131868131868,,0,-1,1768787843.7566528
1768787843764.465,1387.5457875457876,,0,-1,1768787843.764465
1768787843772.2778,1392.6739926739926,,0,-1,1768787843.7722778
1768787843780.0903,1394.139194139194,,0,-1,1768787843.7800903
1768787843787.9028,1392.6739926739926,,0,-1,1768787843.7879028
1768787843795.715,1393.4065934065934,,0,-1,1768787843.795715
1768787843803.5278,1388.278388278388,,0,-1,1768787843.8035278
1768787843811.3403,1386.8131868131868,,0,-1,1768787843.8113403
1768787843819.1528,1381.6849816849815,,0,-1,1768787843.8191528
1768787843826.965,1376.5567765567764,,0,-1,1768787843.826965
1768787843834.7778,1372.161172161172,,0,-1,1768787843.8347778
1768787843842.5903,1362.6373626373625,,0,-1,1768787843.8425903
1768787843850.4028,1358.974358974359,,0,-1,1768787843.8504028
1768787843858.215,1356.043956043956,,0,-1,1768787843.858215
1768787843866.0278,1353.8461538461538,,0,-1,1768787843.8660278
1768787843873.8403,1352.3809523809523,,0,-1,1768787843.8738403
1768787843881.6528,1348.7179487179487,,0,-1,1768787843.8816528
1768787843889.465,1350.18315018315,,0,-1,1768787843.889465
1768787843897.2778,1346.5201465201465,,0,-1,1768787843.8972778
1768787843905.0903,1342.857142857143,,0,-1,1768787843.9050903
1768787843912.9028,1341.3919413919414,,0,-1,1768787843.9129028
1768787843920.715,1338.4615384615383,,0,-1,1768787843.920715
1768787843928.5278,1340.6593406593406,,0,-1,1768787843.9285278
1768787843936.3403,1342.857142857143,,0,-1,1768787843.9363403
1768787843944.1528,1344.3223443223442,,0,-1,1768787843.9441528
1768787843951.965,1349.4505494505493,,0,-1,1768787843.951965
1768787843959.7778,1353.113553113553,,0,-1,1768787843.9597778
1768787843967.5903,1353.8461538461538,,0,-1,1768787843.9675903
1768787843975.4028,1356.7765567765566,,0,-1,1768787843.9754028
1768787843983.215,1355.311355311355,,0,-1,1768787843.983215
1768787843991.0278,1347.2527472527472,,0,-1,1768787843.9910278
1768787843998.8403,1345.054945054945,,0,-1,1768787843.9988403
1768787844006.6528,1342.124542124542,,0,-1,1768787844.0066528
1768787844014.465,1342.124542124542,,0,-1,1768787844.014465
1768787844022.2778,1349.4505494505493,,0,-1,1768787844.0222778
1768787844030.0903,1356.043956043956,,0,-1,1768787844.0300903
1768787844037.9028,1359.7069597069597,,0,-1,1768787844.0379028
1768787844045.715,1364.102564102564,,0,-1,1768787844.045715
1768787844053.5278,1362.6373626373625,,0,-1,1768787844.0535278
1768787844061.3403,1356.7765567765566,,0,-1,1768787844.0613403
1768787844069.1528,1350.9157509157508,,0,-1,1768787844.0691528
1768787844076.965,1348.7179487179487,,0,-1,1768787844.076965
1768787844084.7778,1344.3223443223442,,0,-1,1768787844.0847778
1768787844092.5903,1339.92673992674,,0,-1,1768787844.0925903
1768787844100.4028,1342.857142857143,,0,-1,1768787844.1004028
1768787844108.215,1343.5897435897434,,0,-1,1768787844.108215
1768787844116.0278,1346.5201465201465,,0,-1,1768787844.1160278
1768787844123.8403,1352.3809523809523,,0,-1,1768787844.1238403
1768787844131.6528,1355.311355311355,,0,-1,1768787844.1316528
1768787844139.465,1356.7765567765566,,0,-1,1768787844.139465
1768787844147.2778,1355.311355311355,,0,-1,1768787844.1472778
1768787844155.0903,1350.18315018315,,0,-1,1768787844.1550903
1768787844162.9028,1337.7289377289376,,0,-1,1768787844.1629028
1768787844170.715,1326.007326007326,,0,-1,1768787844.170715
1768787844178.5278,1313.5531135531137,,0,-1,1768787844.1785278
1768787844186.3403,1303.2967032967033,,0,-1,1768787844.1863403
1768787844194.1528,1298.168498168498,,0,-1,1768787844.1941528
1768787844201.965,1297.4358974358977,,0,-1,1768787844.201965
1768787844209.7778,1297.4358974358977,,0,-1,1768787844.2097778
1768787844217.5903,1294.5054945054944,,0,-1,1768787844.2175903
1768787844225.4028,1290.10989010989,,0,-1,1768787844.2254028
1768787844233.215,1286.4468864468863,,0,-1,1768787844.233215
1768787844241.0278,1286.4468864468863,,0,-1,1768787844.2410278
1768787844248.8403,1293.7728937728937,,0,-1,1768787844.2488403
1768787844256.6528,1302.5641025641023,,0,-1,1768787844.2566528
1768787844264.465,1309.1575091575091,,0,-1,1768787844.264465
1768787844272.2778,1312.8205128205127,,0,-1,1768787844.2722778
1768787844280.0903,1315.018315018315,,0,-1,1768787844.2800903
1768787844287.9028,1320.14652014652,,0,-1,1768787844.2879028
1768787844295.715,1321.6117216117216,,0,-1,1768787844.295715
1768787844303.5278,1324.5421245421244,,0,-1,1768787844.3035278
1768787844311.3403,1328.2051282051282,,0,-1,1768787844.3113403
1768787844319.1528,1333.3333333333333,,0,-1,1768787844.3191528
1768787844326.965,1336.263736263736,,0,-1,1768787844.326965
1768787844334.7778,1336.9963369963368,,0,-1,1768787844.3347778
1768787844342.5903,1344.3223443223442,,0,-1,1768787844.3425903
1768787844350.4028,1354.5787545787546,,0,-1,1768787844.3504028
1768787844358.215,1359.7069597069597,,0,-1,1768787844.358215
1768787844366.0278,1368.4981684981683,,0,-1,1768787844.3660278
1768787844373.8403,1376.5567765567764,,0,-1,1768787844.3738403
1768787844381.6528,1378.021978021978,,0,-1,1768787844.3816528
1768787844389.465,1383.150183150183,,0,-1,1768787844.389465
1768787844397.2778,1389.7435897435896,,0,-1,1768787844.3972778
1768787844405.0903,1394.8717948717947,,0,-1,1768787844.4050903
1768787844412.9028,1400.0,,0,-1,1768787844.4129028
1768787844420.715,1408.058608058608,,0,-1,1768787844.420715
1768787844428.5278,1417.5824175824175,,0,-1,1768787844.4285278
1768787844436.3403,1425.6410256410256,,0,-1,1768787844.4363403
1768787844444.1528,1431.5018315018317,,0,-1,1768787844.4441528
1768787844451.965,1432.2344322344322,,0,-1,1768787844.451965
1768787844459.7778,1430.03663003663,,0,-1,1768787844.4597778
1768787844467.5903,1427.106227106227,,0,-1,1768787844.4675903
1768787844475.4028,1422.7106227106226,,0,-1,1768787844.4754028
1768787844483.215,1421.245421245421,,0,-1,1768787844.483215
1768787844491.0278,1424.175824175824,,0,-1,1768787844.4910278
1768787844498.8403,1427.8388278388277,,0,-1,1768787844.4988403
1768787844506.6528,1432.2344322344322,,0,-1,1768787844.5066528
1768787844514.465,1432.2344322344322,,0,-1,1768787844.514465
1768787844522.2778,1433.6996336996335,,0,-1,1768787844.5222778
1768787844530.0903,1435.164835164835,,0,-1,1768787844.5300903
1768787844537.9028,1431.5018315018317,,0,-1,1768787844.5379028
1768787844545.715,1424.9084249084249,,0,-1,1768787844.545715
1768787844553.5278,1421.9780219780218,,0,-1,1768787844.5535278
1768787844561.3403,1421.9780219780218,,0,-1,1768787844.5613403
1768787844569.1528,1422.7106227106226,,0,-1,1768787844.5691528
1768787844576.965,1421.245421245421,,0,-1,1768787844.576965
1768787844584.7778,1418.3150183150185,,0,-1,1768787844.5847778
1768787844592.5903,1416.8498168498168,,0,-1,1768787844.5925903
1768787844600.4028,1416.8498168498168,,0,-1,1768787844.6004028
1768787844608.215,1413.1868131868132,,0,-1,1768787844.608215
1768787844616.0278,1409.5238095238094,,0,-1,1768787844.6160278
1768787844623.8403,1403.6630036630036,,0,-1,1768787844.6238403
1768787844631.6528,1400.7326007326003,,0,-1,1768787844.6316528
1768787844639.465,1401.4652014652013,,0,-1,1768787844.639465
1768787844647.2778,1399.2673992673992,,0,-1,1768787844.6472778
1768787844655.0903,1400.7326007326003,,0,-1,1768787844.6550903
1768787844662.9028,1400.0,,0,-1,1768787844.6629028
1768787844670.715,1400.7326007326003,,0,-1,1768787844.670715
1768787844678.5278,1399.2673992673992,,0,-1,1768787844.6785278
1768787844686.3403,1403.6630036630036,,0,-1,1768787844.6863403
1768787844694.1528,1405.128205128205,,0,-1,1768787844.6941528
1768787844701.965,1407.3260073260071,,0,-1,1768787844.701965
1768787844709.7778,1404.3956043956043,,0,-1,1768787844.7097778
1768787844717.5903,1398.5347985347985,,0,-1,1768787844.7175903
1768787844725.4028,1391.2087912087911,,0,-1,1768787844.7254028
1768787844733.215,1384.6153846153843,,0,-1,1768787844.733215
1768787844741.0278,1379.4871794871794,,0,-1,1768787844.7410278
1768787844748.8403,1378.021978021978,,0,-1,1768787844.7488403
1768787844756.6528,1375.8241758241757,,0,-1,1768787844.7566528
1768787844764.465,1373.6263736263736,,0,-1,1768787844.764465
1768787844772.2778,1373.6263736263736,,0,-1,1768787844.7722778
1768787844780.0903,1372.8937728937728,,0,-1,1768787844.7800903
1768787844787.9028,1372.161172161172,,0,-1,1768787844.7879028
1768787844795.715,1368.4981684981683,,0,-1,1768787844.795715
1768787844803.5278,1364.8351648351647,,0,-1,1768787844.8035278
1768787844811.3403,1361.904761904762,,0,-1,1768787844.8113403
1768787844819.1528,1357.5091575091574,,0,-1,1768787844.8191528
1768787844826.965,1353.8461538461538,,0,-1,1768787844.826965
1768787844834.7778,1350.18315018315,,0,-1,1768787844.8347778
1768787844842.5903,1346.5201465201465,,0,-1,1768787844.8425903
1768787844850.4028,1345.054945054945,,0,-1,1768787844.8504028
1768787844858.215,1347.2527472527472,,0,-1,1768787844.858215
1768787844866.0278,1354.5787545787546,,0,-1,1768787844.8660278
1768787844873.8403,1363.3699633699632,,0,-1,1768787844.8738403
1768787844881.6528,1368.4981684981683,,0,-1,1768787844.8816528
1768787844889.465,1371.428571428571,,0,-1,1768787844.889465
1768787844897.2778,1374.3589743589744,,0,-1,1768787844.8972778
1768787844905.0903,1377.2893772893772,,0,-1,1768787844.9050903
1768787844912.9028,1377.2893772893772,,0,-1,1768787844.9129028
1768787844920.715,1375.091575091575,,0,-1,1768787844.920715
1768787844928.5278,1372.8937728937728,,0,-1,1768787844.9285278
1768787844936.3403,1372.8937728937728,,0,-1,1768787844.9363403
1768787844944.1528,1373.6263736263736,,0,-1,1768787844.9441528
1768787844951.965,1373.6263736263736,,0,-1,1768787844.951965
1768787844959.7778,1373.6263736263736,,0,-1,1768787844.9597778
1768787844967.5903,1370.6959706959706,,0,-1,1768787844.9675903
1768787844975.4028,1366.3003663003662,,0,-1,1768787844.9754028
1768787844983.215,1356.7765567765566,,0,-1,1768787844.983215
1768787844991.0278,1345.054945054945,,0,-1,1768787844.9910278
1768787844998.8403,1333.3333333333333,,0,-1,1768787844.9988403
1768787845006.6528,1323.8095238095236,,0,-1,1768787845.0066528
1768787845014.465,1318.6813186813183,,0,-1,1768787845.014465
1768787845022.2778,1313.5531135531137,,0,-1,1768787845.0222778
1768787845030.0903,1309.1575091575091,,0,-1,1768787845.0300903
1768787845037.9028,1306.9597069597069,,0,-1,1768787845.0379028
1768787845045.715,1304.7619047619046,,0,-1,1768787845.045715
1768787845053.5278,1301.8315018315018,,0,-1,1768787845.0535278
1768787845061.3403,1298.9010989010987,,0,-1,1768787845.0613403
1768787845069.1528,1297.4358974358977,,0,-1,1768787845.0691528
1768787845076.965,1301.098901098901,,0,-1,1768787845.076965
1768787845084.7778,1304.7619047619046,,0,-1,1768787845.0847778
1768787845092.5903,1307.6923076923076,,0,-1,1768787845.0925903
1768787845100.4028,1312.087912087912,,0,-1,1768787845.1004028
1768787845108.215,1318.6813186813183,,0,-1,1768787845.108215
1768787845116.0278,1321.6117216117216,,0,-1,1768787845.1160278
1768787845123.8403,1320.8791208791208,,0,-1,1768787845.1238403
1768787845131.6528,1319.4139194139193,,0,-1,1768787845.1316528
1768787845139.465,1315.7509157509155,,0,-1,1768787845.139465
1768787845147.2778,1312.8205128205127,,0,-1,1768787845.1472778
1768787845155.0903,1311.3553113553112,,0,-1,1768787845.1550903
1768787845162.9028,1310.6227106227104,,0,-1,1768787845.1629028
1768787845170.715,1309.89010989011,,0,-1,1768787845.170715
1768787845178.5278,1308.4249084249084,,0,-1,1768787845.1785278
1768787845186.3403,1306.227106227106,,0,-1,1768787845.1863403
1768787845194.1528,1306.9597069597069,,0,-1,1768787845.1941528
1768787845201.965,1304.0293040293038,,0,-1,1768787845.201965
1768787845209.7778,1303.2967032967033,,0,-1,1768787845.2097778
1768787845217.5903,1303.2967032967033,,0,-1,1768787845.2175903
1768787845225.4028,1306.9597069597069,,0,-1,1768787845.2254028
1768787845233.215,1308.4249084249084,,0,-1,1768787845.233215
1768787845241.0278,1309.89010989011,,0,-1,1768787845.2410278
1768787845248.8403,1306.227106227106,,0,-1,1768787845.2488403
1768787845256.6528,1304.7619047619046,,1,1,1768787845.2566528
1768787845264.465,1306.227106227106,,1,1,1768787845.264465
1768787845272.2778,1306.9597069597069,,1,1,1768787845.2722778
1768787845280.0903,1304.7619047619046,,1,1,1768787845.2800903
1768787845287.9028,1301.8315018315018,,1,1,1768787845.2879028
1768787845295.715,1295.970695970696,,1,1,1768787845.295715
1768787845303.5278,1292.3076923076922,,1,1,1768787845.3035278
1768787845311.3403,1293.040293040293,,1,1,1768787845.3113403
1768787845319.1528,1293.7728937728937,,1,1,1768787845.3191528
1768787845326.965,1294.5054945054944,,1,1,1768787845.326965
1768787845334.7778,1296.7032967032967,,1,1,1768787845.3347778
1768787845342.5903,1298.168498168498,,1,1,1768787845.3425903
1768787845350.4028,1301.098901098901,,1,1,1768787845.3504028
1768787845358.215,1299.6336996336995,,1,1,1768787845.358215
1768787845366.0278,1291.5750915750914,,1,1,1768787845.3660278
1768787845373.8403,1283.5164835164835,,1,1,1768787845.3738403
1768787845381.6528,1276.190476190476,,1,1,1768787845.3816528
1768787845389.465,1271.062271062271,,1,1,1768787845.389465
1768787845397.2778,1269.5970695970695,,1,1,1768787845.3972778
1768787845405.0903,1275.4578754578754,,1,1,1768787845.4050903
1768787845412.9028,1282.051282051282,,1,1,1768787845.4129028
1768787845420.715,1290.8424908424909,,1,1,1768787845.420715
1768787845428.5278,1302.5641025641023,,1,1,1768787845.4285278
1768787845436.3403,1313.5531135531137,,1,1,1768787845.4363403
1768787845444.1528,1326.007326007326,,1,1,1768787845.4441528
1768787845451.965,1337.7289377289376,,1,1,1768787845.451965
1768787845459.7778,1350.18315018315,,1,1,1768787845.4597778
1768787845467.5903,1360.4395604395604,,1,1,1768787845.4675903
1768787845475.4028,1369.230769230769,,1,1,1768787845.4754028
1768787845483.215,1375.8241758241757,,1,1,1768787845.483215
1768787845491.0278,1382.4175824175825,,1,1,1768787845.4910278
1768787845498.8403,1389.0109890109889,,1,1,1768787845.4988403
1768787845506.6528,1395.6043956043954,,1,1,1768787845.5066528
1768787845514.465,1395.6043956043954,,1,1,1768787845.514465
1768787845522.2778,1394.8717948717947,,1,1,1768787845.5222778
1768787845530.0903,1391.2087912087911,,1,1,1768787845.5300903
1768787845537.9028,1386.8131868131868,,1,1,1768787845.5379028
1768787845545.715,1384.6153846153843,,1,1,1768787845.545715
1768787845553.5278,1383.150183150183,,1,1,1768787845.5535278
1768787845561.3403,1383.150183150183,,1,1,1768787845.5613403
1768787845569.1528,1382.4175824175825,,1,1,1768787845.5691528
1768787845576.965,1381.6849816849815,,1,1,1768787845.576965
1768787845584.7778,1381.6849816849815,,1,1,1768787845.5847778
1768787845592.5903,1382.4175824175825,,1,1,1768787845.5925903
1768787845600.4028,1383.8827838827838,,1,1,1768787845.6004028
1768787845608.215,1386.080586080586,,1,1,1768787845.608215
1768787845616.0278,1386.080586080586,,1,1,1768787845.6160278
1768787845623.8403,1388.278388278388,,1,1,1768787845.6238403
1768787845631.6528,1392.6739926739926,,1,1,1768787845.6316528
1768787845639.465,1396.3369963369962,,1,1,1768787845.639465
1768787845647.2778,1398.5347985347985,,1,1,1768787845.6472778
1768787845655.0903,1401.4652014652013,,1,1,1768787845.6550903
1768787845662.9028,1402.9304029304028,,1,1,1768787845.6629028
1768787845670.715,1402.9304029304028,,1,1,1768787845.670715
1768787845678.5278,1401.4652014652013,,1,1,1768787845.6785278
1768787845686.3403,1400.0,,1,1,1768787845.6863403
1768787845694.1528,1403.6630036630036,,1,1,1768787845.6941528
1768787845701.965,1403.6630036630036,,1,1,1768787845.701965
1768787845709.7778,1398.5347985347985,,1,1,1768787845.7097778
1768787845717.5903,1391.941391941392,,1,1,1768787845.7175903
1768787845725.4028,1390.4761904761904,,1,1,1768787845.7254028
1768787845733.215,1390.4761904761904,,1,1,1768787845.733215
1768787845741.0278,1389.7435897435896,,1,1,1768787845.7410278
1768787845748.8403,1389.0109890109889,,1,1,1768787845.7488403
1768787845756.6528,1388.278388278388,,1,1,1768787845.7566528
1768787845764.465,1386.080586080586,,1,1,1768787845.764465
1768787845772.2778,1380.2197802197802,,1,1,1768787845.7722778
1768787845780.0903,1375.8241758241757,,1,1,1768787845.7800903
1768787845787.9028,1371.428571428571,,1,1,1768787845.7879028
1768787845795.715,1367.7655677655678,,1,1,1768787845.795715
1768787845803.5278,1365.5677655677655,,1,1,1768787845.8035278
1768787845811.3403,1364.102564102564,,1,1,1768787845.8113403
1768787845819.1528,1361.1721611721612,,1,1,1768787845.8191528
1768787845826.965,1359.7069597069597,,1,1,1768787845.826965
1768787845834.7778,1359.7069597069597,,1,1,1768787845.8347778
1768787845842.5903,1359.7069597069597,,1,1,1768787845.8425903
1768787845850.4028,1354.5787545787546,,1,1,1768787845.8504028
1768787845858.215,1349.4505494505493,,1,1,1768787845.858215
1768787845866.0278,1348.7179487179487,,1,1,1768787845.8660278
1768787845873.8403,1347.2527472527472,,1,1,1768787845.8738403
1768787845881.6528,1344.3223443223442,,1,1,1768787845.8816528
1768787845889.465,1345.7875457875457,,1,1,1768787845.889465
1768787845897.2778,1352.3809523809523,,1,1,1768787845.8972778
1768787845905.0903,1356.043956043956,,1,1,1768787845.9050903
1768787845912.9028,1356.7765567765566,,1,1,1768787845.9129028
1768787845920.715,1356.7765567765566,,1,1,1768787845.920715
1768787845928.5278,1358.241758241758,,1,1,1768787845.9285278
1768787845936.3403,1357.5091575091574,,1,1,1768787845.9363403
1768787845944.1528,1356.043956043956,,1,1,1768787845.9441528
1768787845951.965,1357.5091575091574,,1,1,1768787845.951965
1768787845959.7778,1358.974358974359,,1,1,1768787845.9597778
1768787845967.5903,1359.7069597069597,,1,1,1768787845.9675903
1768787845975.4028,1353.8461538461538,,1,1,1768787845.9754028
1768787845983.215,1350.9157509157508,,1,1,1768787845.983215
1768787845991.0278,1351.6483516483515,,1,1,1768787845.9910278
1768787845998.8403,1350.9157509157508,,1,1,1768787845.9988403
1768787846006.6528,1350.18315018315,,1,1,1768787846.0066528
1768787846014.465,1356.043956043956,,1,1,1768787846.014465
1768787846022.2778,1360.4395604395604,,1,1,1768787846.0222778
1768787846030.0903,1362.6373626373625,,1,1,1768787846.0300903
1768787846037.9028,1359.7069597069597,,1,1,1768787846.0379028
1768787846045.715,1354.5787545787546,,1,1,1768787846.045715
1768787846053.5278,1348.7179487179487,,1,1,1768787846.0535278
1768787846061.3403,1337.7289377289376,,1,1,1768787846.0613403
1768787846069.1528,1328.2051282051282,,1,1,1768787846.0691528
1768787846076.965,1322.3443223443223,,1,1,1768787846.076965
1768787846084.7778,1315.7509157509155,,1,1,1768787846.0847778
1768787846092.5903,1312.8205128205127,,1,1,1768787846.0925903
1768787846100.4028,1317.216117216117,,1,1,1768787846.1004028
1768787846108.215,1318.6813186813183,,1,1,1768787846.108215
1768787846116.0278,1320.14652014652,,1,1,1768787846.1160278
1768787846123.8403,1321.6117216117216,,1,1,1768787846.1238403
1768787846131.6528,1325.2747252747251,,1,1,1768787846.1316528
1768787846139.465,1326.739926739927,,1,1,1768787846.139465
1768787846147.2778,1334.065934065934,,1,1,1768787846.1472778
1768787846155.0903,1342.124542124542,,1,1,1768787846.1550903
1768787846162.9028,1343.5897435897434,,1,1,1768787846.1629028
1768787846170.715,1345.054945054945,,1,1,1768787846.170715
1768787846178.5278,1344.3223443223442,,1,1,1768787846.1785278
1768787846186.3403,1340.6593406593406,,1,1,1768787846.1863403
1768787846194.1528,1335.5311355311355,,1,1,1768787846.1941528
1768787846201.965,1330.4029304029302,,1,1,1768787846.201965
1768787846209.7778,1326.007326007326,,1,1,1768787846.2097778
1768787846217.5903,1318.6813186813183,,1,1,1768787846.2175903
1768787846225.4028,1315.7509157509155,,1,1,1768787846.2254028
1768787846233.215,1317.9487179487178,,1,1,1768787846.233215
1768787846241.0278,1318.6813186813183,,1,1,1768787846.2410278
1768787846248.8403,1318.6813186813183,,1,1,1768787846.2488403
1768787846256.6528,1320.8791208791208,,1,1,1768787846.2566528
1768787846264.465,1323.8095238095236,,1,1,1768787846.264465
1768787846272.2778,1326.007326007326,,1,1,1768787846.2722778
1768787846280.0903,1330.4029304029302,,1,1,1768787846.2800903
1768787846287.9028,1329.6703296703297,,1,1,1768787846.2879028
1768787846295.715,1323.8095238095236,,1,1,1768787846.295715
1768787846303.5278,1322.3443223443223,,1,1,1768787846.3035278
1768787846311.3403,1317.216117216117,,1,1,1768787846.3113403
1768787846319.1528,1316.4835164835165,,1,1,1768787846.3191528
1768787846326.965,1311.3553113553112,,1,1,1768787846.326965
1768787846334.7778,1304.7619047619046,,1,1,1768787846.3347778
1768787846342.5903,1302.5641025641023,,1,1,1768787846.3425903
1768787846350.4028,1295.970695970696,,1,1,1768787846.3504028
1768787846358.215,1287.179487179487,,1,1,1768787846.358215
1768787846366.0278,1284.9816849816848,,1,1,1768787846.3660278
1768787846373.8403,1279.8534798534797,,1,1,1768787846.3738403
1768787846381.6528,1276.190476190476,,1,1,1768787846.3816528
1768787846389.465,1275.4578754578754,,1,1,1768787846.389465
1768787846397.2778,1279.8534798534797,,1,1,1768787846.3972778
1768787846405.0903,1280.5860805860805,,1,1,1768787846.4050903
1768787846412.9028,1283.5164835164835,,1,1,1768787846.4129028
1768787846420.715,1284.2490842490845,,1,1,1768787846.420715
1768787846428.5278,1286.4468864468863,,1,1,1768787846.4285278
1768787846436.3403,1295.2380952380952,,1,1,1768787846.4363403
1768787846444.1528,1298.168498168498,,1,1,1768787846.4441528
1768787846451.965,1301.098901098901,,1,1,1768787846.451965
1768787846459.7778,1302.5641025641023,,1,1,1768787846.4597778
1768787846467.5903,1302.5641025641023,,1,1,1768787846.4675903
1768787846475.4028,1304.7619047619046,,1,1,1768787846.4754028
1768787846483.215,1306.227106227106,,1,1,1768787846.483215
1768787846491.0278,1304.7619047619046,,1,1,1768787846.4910278
1768787846498.8403,1303.2967032967033,,1,1,1768787846.4988403
1768787846506.6528,1302.5641025641023,,1,1,1768787846.5066528
1768787846514.465,1302.5641025641023,,1,1,1768787846.514465
1768787846522.2778,1311.3553113553112,,1,1,1768787846.5222778
1768787846530.0903,1323.076923076923,,1,1,1768787846.5300903
1768787846537.9028,1334.065934065934,,1,1,1768787846.5379028
1768787846545.715,1347.2527472527472,,1,1,1768787846.545715
1768787846553.5278,1358.241758241758,,1,1,1768787846.5535278
1768787846561.3403,1367.032967032967,,1,1,1768787846.5613403
1768787846569.1528,1378.7545787545787,,1,1,1768787846.5691528
1768787846576.965,1380.2197802197802,,1,1,1768787846.576965
1768787846584.7778,1381.6849816849815,,1,1,1768787846.5847778
1768787846592.5903,1373.6263736263736,,1,1,1768787846.5925903
1768787846600.4028,1368.4981684981683,,1,1,1768787846.6004028
1768787846608.215,1361.904761904762,,1,1,1768787846.608215
1768787846616.0278,1360.4395604395604,,1,1,1768787846.6160278
1768787846623.8403,1358.974358974359,,1,1,1768787846.6238403
1768787846631.6528,1361.1721611721612,,1,1,1768787846.6316528
1768787846639.465,1358.241758241758,,1,1,1768787846.639465
1768787846647.2778,1359.7069597069597,,1,1,1768787846.6472778
1768787846655.0903,1356.043956043956,,1,1,1768787846.6550903
1768787846662.9028,1356.7765567765566,,1,1,1768787846.6629028
1768787846670.715,1353.113553113553,,1,1,1768787846.670715
1768787846678.5278,1353.8461538461538,,1,1,1768787846.6785278
1768787846686.3403,1352.3809523809523,,1,1,1768787846.6863403
1768787846694.1528,1358.974358974359,,1,1,1768787846.6941528
1768787846701.965,1361.1721611721612,,1,1,1768787846.701965
1768787846709.7778,1369.230769230769,,1,1,1768787846.7097778
1768787846717.5903,1372.161172161172,,1,1,1768787846.7175903
1768787846725.4028,1379.4871794871794,,1,1,1768787846.7254028
1768787846733.215,1377.2893772893772,,1,1,1768787846.733215
1768787846741.0278,1378.7545787545787,,1,1,1768787846.7410278
1768787846748.8403,1375.8241758241757,,1,1,1768787846.7488403
1768787846756.6528,1375.091575091575,,1,1,1768787846.7566528
1768787846764.465,1375.8241758241757,,1,1,1768787846.764465
1768787846772.2778,1375.8241758241757,,1,1,1768787846.7722778
1768787846780.0903,1378.7545787545787,,1,1,1768787846.7800903
1768787846787.9028,1376.5567765567764,,1,1,1768787846.7879028
1768787846795.715,1380.952380952381,,1,1,1768787846.795715
1768787846803.5278,1380.2197802197802,,1,1,1768787846.8035278
1768787846811.3403,1384.6153846153843,,1,1,1768787846.8113403
1768787846819.1528,1389.0109890109889,,1,1,1768787846.8191528
1768787846826.965,1387.5457875457876,,1,1,1768787846.826965
1768787846834.7778,1385.3479853479853,,1,1,1768787846.8347778
1768787846842.5903,1385.3479853479853,,1,1,1768787846.8425903
1768787846850.4028,1381.6849816849815,,1,1,1768787846.8504028
1768787846858.215,1378.7545787545787,,1,1,1768787846.858215
1768787846866.0278,1371.428571428571,,1,1,1768787846.8660278
1768787846873.8403,1372.161172161172,,1,1,1768787846.8738403
1768787846881.6528,1365.5677655677655,,1,1,1768787846.8816528
1768787846889.465,1365.5677655677655,,1,1,1768787846.889465
1768787846897.2778,1358.974358974359,,1,1,1768787846.8972778
1768787846905.0903,1357.5091575091574,,1,1,1768787846.9050903
1768787846912.9028,1351.6483516483515,,1,1,1768787846.9129028
1768787846920.715,1353.8461538461538,,1,1,1768787846.920715
1768787846928.5278,1354.5787545787546,,1,1,1768787846.9285278
1768787846936.3403,1357.5091575091574,,1,1,1768787846.9363403
1768787846944.1528,1356.043956043956,,1,1,1768787846.9441528
1768787846951.965,1357.5091575091574,,1,1,1768787846.951965
1768787846959.7778,1353.8461538461538,,1,1,1768787846.9597778
1768787846967.5903,1353.113553113553,,1,1,1768787846.9675903
1768787846975.4028,1345.7875457875457,,1,1,1768787846.9754028
1768787846983.215,1342.857142857143,,1,1,1768787846.983215
1768787846991.0278,1336.263736263736,,1,1,1768787846.9910278
1768787846998.8403,1335.5311355311355,,1,1,1768787846.9988403
1768787847006.6528,1334.065934065934,,1,1,1768787847.0066528
1768787847014.465,1340.6593406593406,,1,1,1768787847.014465
1768787847022.2778,1343.5897435897434,,1,1,1768787847.0222778
1768787847030.0903,1350.9157509157508,,1,1,1768787847.0300903
1768787847037.9028,1349.4505494505493,,1,1,1768787847.0379028
1768787847045.715,1354.5787545787546,,1,1,1768787847.045715
1768787847053.5278,1356.043956043956,,1,1,1768787847.0535278
1768787847061.3403,1357.5091575091574,,1,1,1768787847.0613403
1768787847069.1528,1353.8461538461538,,1,1,1768787847.0691528
1768787847076.965,1349.4505494505493,,1,1,1768787847.076965
1768787847084.7778,1349.4505494505493,,1,1,1768787847.0847778
1768787847092.5903,1349.4505494505493,,1,1,1768787847.0925903
1768787847100.4028,1353.113553113553,,1,1,1768787847.1004028
1768787847108.215,1358.241758241758,,1,1,1768787847.108215
1768787847116.0278,1358.241758241758,,1,1,1768787847.1160278
1768787847123.8403,1355.311355311355,,1,1,1768787847.1238403
1768787847131.6528,1353.8461538461538,,1,1,1768787847.1316528
1768787847139.465,1347.2527472527472,,1,1,1768787847.139465
1768787847147.2778,1337.7289377289376,,1,1,1768787847.1472778
1768787847155.0903,1330.4029304029302,,1,1,1768787847.1550903
1768787847162.9028,1323.8095238095236,,1,1,1768787847.1629028
1768787847170.715,1314.2857142857142,,1,1,1768787847.170715
1768787847178.5278,1312.087912087912,,1,1,1768787847.1785278
1768787847186.3403,1317.9487179487178,,1,1,1768787847.1863403
1768787847194.1528,1323.8095238095236,,1,1,1768787847.1941528
1768787847201.965,1323.076923076923,,1,1,1768787847.201965
1768787847209.7778,1324.5421245421244,,1,1,1768787847.2097778
1768787847217.5903,1326.007326007326,,1,1,1768787847.2175903
1768787847225.4028,1322.3443223443223,,1,1,1768787847.2254028
1768787847233.215,1320.8791208791208,,1,1,1768787847.233215
1768787847241.0278,1319.4139194139193,,1,1,1768787847.2410278
1768787847248.8403,1317.216117216117,,1,1,1768787847.2488403
1768787847256.6528,1320.14652014652,,1,1,1768787847.2566528
1768787847264.465,1320.8791208791208,,1,1,1768787847.264465
1768787847272.2778,1323.076923076923,,1,1,1768787847.2722778
1768787847280.0903,1323.8095238095236,,1,1,1768787847.2800903
1768787847287.9028,1320.8791208791208,,1,1,1768787847.2879028
1768787847295.715,1322.3443223443223,,1,1,1768787847.295715
1768787847303.5278,1318.6813186813183,,1,1,1768787847.3035278
1768787847311.3403,1315.018315018315,,1,1,1768787847.3113403
1768787847319.1528,1314.2857142857142,,1,1,1768787847.3191528
1768787847326.965,1312.8205128205127,,1,1,1768787847.326965
1768787847334.7778,1309.1575091575091,,1,1,1768787847.3347778
1768787847342.5903,1308.4249084249084,,1,1,1768787847.3425903
1768787847350.4028,1309.89010989011,,1,1,1768787847.3504028
1768787847358.215,1306.9597069597069,,1,1,1768787847.358215
1768787847366.0278,1307.6923076923076,,1,1,1768787847.3660278
1768787847373.8403,1308.4249084249084,,1,1,1768787847.3738403
1768787847381.6528,1303.2967032967033,,1,1,1768787847.3816528
1768787847389.465,1298.9010989010987,,1,1,1768787847.389465
1768787847397.2778,1299.6336996336995,,1,1,1768787847.3972778
1768787847405.0903,1297.4358974358977,,1,1,1768787847.4050903
1768787847412.9028,1295.2380952380952,,1,1,1768787847.4129028
1768787847420.715,1297.4358974358977,,1,1,1768787847.420715
1768787847428.5278,1297.4358974358977,,1,1,1768787847.4285278
1768787847436.3403,1296.7032967032967,,1,1,1768787847.4363403
1768787847444.1528,1298.168498168498,,1,1,1768787847.4441528
1768787847451.965,1297.4358974358977,,1,1,1768787847.451965
1768787847459.7778,1301.098901098901,,1,1,1768787847.4597778
1768787847467.5903,1306.227106227106,,1,1,1768787847.4675903
1768787847475.4028,1312.8205128205127,,1,1,1768787847.4754028
1768787847483.215,1323.8095238095236,,1,1,1768787847.483215
1768787847491.0278,1332.6007326007325,,1,1,1768787847.4910278
1768787847498.8403,1341.3919413919414,,1,1,1768787847.4988403
1768787847506.6528,1349.4505494505493,,1,1,1768787847.5066528
1768787847514.465,1352.3809523809523,,1,1,1768787847.514465
1768787847522.2778,1352.3809523809523,,1,1,1768787847.5222778
1768787847530.0903,1358.241758241758,,1,1,1768787847.5300903
1768787847537.9028,1369.230769230769,,1,1,1768787847.5379028
1768787847545.715,1378.021978021978,,1,1,1768787847.545715
1768787847553.5278,1383.150183150183,,1,1,1768787847.5535278
1768787847561.3403,1385.3479853479853,,1,1,1768787847.5613403
1768787847569.1528,1386.8131868131868,,1,1,1768787847.5691528
1768787847576.965,1391.941391941392,,1,1,1768787847.576965
1768787847584.7778,1393.4065934065934,,1,1,1768787847.5847778
1768787847592.5903,1390.4761904761904,,0,-1,1768787847.5925903
1768787847600.4028,1389.0109890109889,,0,-1,1768787847.6004028
1768787847608.215,1387.5457875457876,,0,-1,1768787847.608215
1768787847616.0278,1388.278388278388,,0,-1,1768787847.6160278
1768787847623.8403,1387.5457875457876,,0,-1,1768787847.6238403
1768787847631.6528,1385.3479853479853,,0,-1,1768787847.6316528
1768787847639.465,1386.080586080586,,0,-1,1768787847.639465
1768787847647.2778,1384.6153846153843,,0,-1,1768787847.6472778
1768787847655.0903,1382.4175824175825,,0,-1,1768787847.6550903
1768787847662.9028,1382.4175824175825,,0,-1,1768787847.6629028
1768787847670.715,1387.5457875457876,,0,-1,1768787847.670715
1768787847678.5278,1394.139194139194,,0,-1,1768787847.6785278
1768787847686.3403,1398.5347985347985,,0,-1,1768787847.6863403
1768787847694.1528,1400.7326007326003,,0,-1,1768787847.6941528
1768787847701.965,1400.7326007326003,,0,-1,1768787847.701965
1768787847709.7778,1394.8717948717947,,0,-1,1768787847.7097778
1768787847717.5903,1390.4761904761904,,0,-1,1768787847.7175903
1768787847725.4028,1386.8131868131868,,0,-1,1768787847.7254028
1768787847733.215,1384.6153846153843,,0,-1,1768787847.733215
1768787847741.0278,1378.7545787545787,,0,-1,1768787847.7410278
1768787847748.8403,1376.5567765567764,,0,-1,1768787847.7488403
1768787847756.6528,1375.091575091575,,0,-1,1768787847.7566528
1768787847764.465,1373.6263736263736,,0,-1,1768787847.764465
1768787847772.2778,1373.6263736263736,,0,-1,1768787847.7722778
1768787847780.0903,1372.161172161172,,0,-1,1768787847.7800903
1768787847787.9028,1372.161172161172,,0,-1,1768787847.7879028
1768787847795.715,1375.091575091575,,0,-1,1768787847.795715
1768787847803.5278,1380.2197802197802,,0,-1,1768787847.8035278
1768787847811.3403,1382.4175824175825,,0,-1,1768787847.8113403
1768787847819.1528,1382.4175824175825,,0,-1,1768787847.8191528
1768787847826.965,1381.6849816849815,,0,-1,1768787847.826965
1768787847834.7778,1381.6849816849815,,0,-1,1768787847.8347778
1768787847842.5903,1380.2197802197802,,0,-1,1768787847.8425903
1768787847850.4028,1380.2197802197802,,0,-1,1768787847.8504028
1768787847858.215,1376.5567765567764,,0,-1,1768787847.858215
1768787847866.0278,1373.6263736263736,,0,-1,1768787847.8660278
1768787847873.8403,1372.161172161172,,0,-1,1768787847.8738403
1768787847881.6528,1369.9633699633698,,0,-1,1768787847.8816528
1768787847889.465,1367.032967032967,,0,-1,1768787847.889465
1768787847897.2778,1368.4981684981683,,0,-1,1768787847.8972778
1768787847905.0903,1371.428571428571,,0,-1,1768787847.9050903
1768787847912.9028,1371.428571428571,,0,-1,1768787847.9129028
1768787847920.715,1369.230769230769,,0,-1,1768787847.920715
1768787847928.5278,1367.032967032967,,0,-1,1768787847.9285278
1768787847936.3403,1365.5677655677655,,0,-1,1768787847.9363403
1768787847944.1528,1363.3699633699632,,0,-1,1768787847.9441528
1768787847951.965,1358.241758241758,,0,-1,1768787847.951965
1768787847959.7778,1352.3809523809523,,0,-1,1768787847.9597778
1768787847967.5903,1347.2527472527472,,0,-1,1768787847.9675903
1768787847975.4028,1341.3919413919414,,0,-1,1768787847.9754028
1768787847983.215,1334.065934065934,,0,-1,1768787847.983215
1768787847991.0278,1326.007326007326,,0,-1,1768787847.9910278
1768787847998.8403,1317.9487179487178,,0,-1,1768787847.9988403
1768787848006.6528,1308.4249084249084,,0,-1,1768787848.0066528
1768787848014.465,1301.098901098901,,0,-1,1768787848.014465
1768787848022.2778,1301.098901098901,,0,-1,1768787848.0222778
1768787848030.0903,1304.7619047619046,,0,-1,1768787848.0300903
1768787848037.9028,1316.4835164835165,,0,-1,1768787848.0379028
1768787848045.715,1329.6703296703297,,0,-1,1768787848.045715
1768787848053.5278,1339.194139194139,,0,-1,1768787848.0535278
1768787848061.3403,1348.7179487179487,,0,-1,1768787848.0613403
1768787848069.1528,1356.043956043956,,0,-1,1768787848.0691528
1768787848076.965,1363.3699633699632,,0,-1,1768787848.076965
1768787848084.7778,1369.230769230769,,0,-1,1768787848.0847778
1768787848092.5903,1369.9633699633698,,0,-1,1768787848.0925903
1768787848100.4028,1369.9633699633698,,0,-1,1768787848.1004028
1768787848108.215,1370.6959706959706,,0,-1,1768787848.108215
1768787848116.0278,1372.8937728937728,,0,-1,1768787848.1160278
1768787848123.8403,1374.3589743589744,,0,-1,1768787848.1238403
1768787848131.6528,1373.6263736263736,,0,-1,1768787848.1316528
1768787848139.465,1369.230769230769,,0,-1,1768787848.139465
1768787848147.2778,1362.6373626373625,,0,-1,1768787848.1472778
1768787848155.0903,1355.311355311355,,0,-1,1768787848.1550903
1768787848162.9028,1350.18315018315,,0,-1,1768787848.1629028
1768787848170.715,1341.3919413919414,,0,-1,1768787848.170715
1768787848178.5278,1327.4725274725274,,0,-1,1768787848.1785278
1768787848186.3403,1315.7509157509155,,0,-1,1768787848.1863403
1768787848194.1528,1309.89010989011,,0,-1,1768787848.1941528
1768787848201.965,1310.6227106227104,,0,-1,1768787848.201965
1768787848209.7778,1314.2857142857142,,0,-1,1768787848.2097778
1768787848217.5903,1317.9487179487178,,0,-1,1768787848.2175903
1768787848225.4028,1322.3443223443223,,0,-1,1768787848.2254028
1768787848233.215,1326.007326007326,,0,-1,1768787848.233215
1768787848241.0278,1331.135531135531,,0,-1,1768787848.2410278
1768787848248.8403,1335.5311355311355,,0,-1,1768787848.2488403
1768787848256.6528,1337.7289377289376,,0,-1,1768787848.2566528
1768787848264.465,1335.5311355311355,,0,-1,1768787848.264465
1768787848272.2778,1333.3333333333333,,0,-1,1768787848.2722778
1768787848280.0903,1333.3333333333333,,0,-1,1768787848.2800903
1768787848287.9028,1336.9963369963368,,0,-1,1768787848.2879028
1768787848295.715,1337.7289377289376,,0,-1,1768787848.295715
1768787848303.5278,1337.7289377289376,,0,-1,1768787848.3035278
1768787848311.3403,1338.4615384615383,,0,-1,1768787848.3113403
1768787848319.1528,1336.9963369963368,,0,-1,1768787848.3191528
1768787848326.965,1332.6007326007325,,0,-1,1768787848.326965
1768787848334.7778,1333.3333333333333,,0,-1,1768787848.3347778
1768787848342.5903,1331.8681318681315,,0,-1,1768787848.3425903
1768787848350.4028,1330.4029304029302,,0,-1,1768787848.3504028
1768787848358.215,1332.6007326007325,,0,-1,1768787848.358215
1768787848366.0278,1339.92673992674,,0,-1,1768787848.3660278
1768787848373.8403,1347.985347985348,,0,-1,1768787848.3738403
1768787848381.6528,1356.043956043956,,0,-1,1768787848.3816528
1768787848389.465,1365.5677655677655,,0,-1,1768787848.389465
1768787848397.2778,1375.091575091575,,0,-1,1768787848.3972778
1768787848405.0903,1383.150183150183,,0,-1,1768787848.4050903
1768787848412.9028,1386.8131868131868,,0,-1,1768787848.4129028
1768787848420.715,1387.5457875457876,,0,-1,1768787848.420715
1768787848428.5278,1390.4761904761904,,0,-1,1768787848.4285278
1768787848436.3403,1392.6739926739926,,0,-1,1768787848.4363403
1768787848444.1528,1400.0,,0,-1,1768787848.4441528
1768787848451.965,1408.7912087912086,,0,-1,1768787848.451965
1768787848459.7778,1415.3846153846152,,0,-1,1768787848.4597778
1768787848467.5903,1423.4432234432234,,0,-1,1768787848.4675903
1768787848475.4028,1427.8388278388277,,0,-1,1768787848.4754028
1768787848483.215,1429.3040293040292,,0,-1,1768787848.483215
1768787848491.0278,1429.3040293040292,,0,-1,1768787848.4910278
1768787848498.8403,1429.3040293040292,,0,-1,1768787848.4988403
1768787848506.6528,1427.8388278388277,,0,-1,1768787848.5066528
1768787848514.465,1428.5714285714284,,0,-1,1768787848.514465
1768787848522.2778,1428.5714285714284,,0,-1,1768787848.5222778
1768787848530.0903,1429.3040293040292,,0,-1,1768787848.5300903
1768787848537.9028,1430.7692307692307,,0,-1,1768787848.5379028
1768787848545.715,1434.4322344322345,,0,-1,1768787848.545715
1768787848553.5278,1435.8974358974358,,0,-1,1768787848.5535278
1768787848561.3403,1438.8278388278388,,0,-1,1768787848.5613403
1768787848569.1528,1437.362637362637,,0,-1,1768787848.5691528
1768787848576.965,1432.2344322344322,,0,-1,1768787848.576965
1768787848584.7778,1424.9084249084249,,0,-1,1768787848.5847778
1768787848592.5903,1421.245421245421,,0,-1,1768787848.5925903
1768787848600.4028,1419.7802197802198,,0,-1,1768787848.6004028
1768787848608.215,1421.245421245421,,0,-1,1768787848.608215
1768787848616.0278,1424.175824175824,,0,-1,1768787848.6160278
1768787848623.8403,1427.8388278388277,,0,-1,1768787848.6238403
1768787848631.6528,1428.5714285714284,,0,-1,1768787848.6316528
1768787848639.465,1428.5714285714284,,0,-1,1768787848.639465
1768787848647.2778,1428.5714285714284,,0,-1,1768787848.6472778
1768787848655.0903,1428.5714285714284,,0,-1,1768787848.6550903
1768787848662.9028,1429.3040293040292,,0,-1,1768787848.6629028
1768787848670.715,1429.3040293040292,,0,-1,1768787848.670715
1768787848678.5278,1426.3736263736262,,0,-1,1768787848.6785278
1768787848686.3403,1419.7802197802198,,0,-1,1768787848.6863403
1768787848694.1528,1413.1868131868132,,0,-1,1768787848.6941528
1768787848701.965,1408.058608058608,,0,-1,1768787848.701965
1768787848709.7778,1403.6630036630036,,0,-1,1768787848.7097778
1768787848717.5903,1401.4652014652013,,0,-1,1768787848.7175903
1768787848725.4028,1397.8021978021975,,0,-1,1768787848.7254028
1768787848733.215,1392.6739926739926,,0,-1,1768787848.733215
1768787848741.0278,1386.8131868131868,,0,-1,1768787848.7410278
1768787848748.8403,1386.8131868131868,,0,-1,1768787848.7488403
1768787848756.6528,1386.8131868131868,,0,-1,1768787848.7566528
1768787848764.465,1393.4065934065934,,0,-1,1768787848.764465
1768787848772.2778,1400.7326007326003,,0,-1,1768787848.7722778
1768787848780.0903,1407.3260073260071,,0,-1,1768787848.7800903
1768787848787.9028,1409.5238095238094,,0,-1,1768787848.7879028
1768787848795.715,1408.7912087912086,,0,-1,1768787848.795715
1768787848803.5278,1408.058608058608,,0,-1,1768787848.8035278
1768787848811.3403,1404.3956043956043,,0,-1,1768787848.8113403
1768787848819.1528,1397.069597069597,,0,-1,1768787848.8191528
1768787848826.965,1390.4761904761904,,0,-1,1768787848.826965
1768787848834.7778,1387.5457875457876,,0,-1,1768787848.8347778
1768787848842.5903,1387.5457875457876,,0,-1,1768787848.8425903
1768787848850.4028,1390.4761904761904,,0,-1,1768787848.8504028
1768787848858.215,1393.4065934065934,,0,-1,1768787848.858215
1768787848866.0278,1397.069597069597,,0,-1,1768787848.8660278
1768787848873.8403,1400.0,,0,-1,1768787848.8738403
1768787848881.6528,1402.9304029304028,,0,-1,1768787848.8816528
1768787848889.465,1404.3956043956043,,0,-1,1768787848.889465
1768787848897.2778,1403.6630036630036,,0,-1,1768787848.8972778
1768787848905.0903,1402.197802197802,,0,-1,1768787848.9050903
1768787848912.9028,1398.5347985347985,,0,-1,1768787848.9129028
1768787848920.715,1391.941391941392,,0,-1,1768787848.920715
1768787848928.5278,1384.6153846153843,,0,-1,1768787848.9285278
1768787848936.3403,1376.5567765567764,,0,-1,1768787848.9363403
1768787848944.1528,1367.7655677655678,,0,-1,1768787848.9441528
1768787848951.965,1358.974358974359,,0,-1,1768787848.951965
1768787848959.7778,1351.6483516483515,,0,-1,1768787848.9597778
1768787848967.5903,1350.9157509157508,,0,-1,1768787848.9675903
1768787848975.4028,1350.18315018315,,0,-1,1768787848.9754028
1768787848983.215,1354.5787545787546,,0,-1,1768787848.983215
1768787848991.0278,1356.7765567765566,,0,-1,1768787848.9910278
1768787848998.8403,1357.5091575091574,,0,-1,1768787848.9988403
1768787849006.6528,1359.7069597069597,,0,-1,1768787849.0066528
1768787849014.465,1361.1721611721612,,0,-1,1768787849.014465
1768787849022.2778,1364.102564102564,,0,-1,1768787849.0222778
1768787849030.0903,1367.7655677655678,,0,-1,1768787849.0300903
1768787849037.9028,1370.6959706959706,,0,-1,1768787849.0379028
1768787849045.715,1375.091575091575,,0,-1,1768787849.045715
1768787849053.5278,1377.2893772893772,,0,-1,1768787849.0535278
1768787849061.3403,1378.7545787545787,,0,-1,1768787849.0613403
1768787849069.1528,1378.7545787545787,,0,-1,1768787849.0691528
1768787849076.965,1377.2893772893772,,0,-1,1768787849.076965
1768787849084.7778,1375.8241758241757,,0,-1,1768787849.0847778
1768787849092.5903,1375.091575091575,,0,-1,1768787849.0925903
1768787849100.4028,1374.3589743589744,,0,-1,1768787849.1004028
1768787849108.215,1369.9633699633698,,0,-1,1768787849.108215
1768787849116.0278,1366.3003663003662,,0,-1,1768787849.1160278
1768787849123.8403,1363.3699633699632,,0,-1,1768787849.1238403
1768787849131.6528,1361.1721611721612,,0,-1,1768787849.1316528
1768787849139.465,1355.311355311355,,0,-1,1768787849.139465
1768787849147.2778,1344.3223443223442,,0,-1,1768787849.1472778
1768787849155.0903,1334.7985347985348,,0,-1,1768787849.1550903
1768787849162.9028,1334.065934065934,,0,-1,1768787849.1629028
1768787849170.715,1339.92673992674,,0,-1,1768787849.170715
1768787849178.5278,1345.054945054945,,0,-1,1768787849.1785278
1768787849186.3403,1347.985347985348,,0,-1,1768787849.1863403
1768787849194.1528,1345.054945054945,,0,-1,1768787849.1941528
1768787849201.965,1342.857142857143,,0,-1,1768787849.201965
1768787849209.7778,1341.3919413919414,,0,-1,1768787849.2097778
1768787849217.5903,1343.5897435897434,,0,-1,1768787849.2175903
1768787849225.4028,1340.6593406593406,,0,-1,1768787849.2254028
1768787849233.215,1345.054945054945,,0,-1,1768787849.233215
1768787849241.0278,1346.5201465201465,,0,-1,1768787849.2410278
1768787849248.8403,1348.7179487179487,,0,-1,1768787849.2488403
1768787849256.6528,1347.985347985348,,0,-1,1768787849.2566528
1768787849264.465,1350.9157509157508,,0,-1,1768787849.264465
1768787849272.2778,1355.311355311355,,0,-1,1768787849.2722778
1768787849280.0903,1363.3699633699632,,0,-1,1768787849.2800903
1768787849287.9028,1375.8241758241757,,0,-1,1768787849.2879028
1768787849295.715,1389.0109890109889,,0,-1,1768787849.295715
1768787849303.5278,1399.2673992673992,,0,-1,1768787849.3035278
1768787849311.3403,1407.3260073260071,,0,-1,1768787849.3113403
1768787849319.1528,1418.3150183150185,,0,-1,1768787849.3191528
1768787849326.965,1430.03663003663,,0,-1,1768787849.326965
1768787849334.7778,1438.8278388278388,,0,-1,1768787849.3347778
1768787849342.5903,1445.4212454212454,,0,-1,1768787849.3425903
1768787849350.4028,1447.6190476190477,,0,-1,1768787849.3504028
1768787849358.215,1446.153846153846,,0,-1,1768787849.358215
1768787849366.0278,1447.6190476190477,,0,-1,1768787849.3660278
1768787849373.8403,1450.5494505494505,,0,-1,1768787849.3738403
1768787849381.6528,1454.212454212454,,0,-1,1768787849.3816528
1768787849389.465,1455.6776556776556,,0,-1,1768787849.389465
1768787849397.2778,1458.6080586080584,,0,-1,1768787849.3972778
1768787849405.0903,1463.7362637362637,,0,-1,1768787849.4050903
1768787849412.9028,1471.7948717948716,,0,-1,1768787849.4129028
1768787849420.715,1480.5860805860805,,0,-1,1768787849.420715
1768787849428.5278,1488.6446886446886,,0,-1,1768787849.4285278
1768787849436.3403,1491.5750915750914,,0,-1,1768787849.4363403
1768787849444.1528,1494.5054945054944,,0,-1,1768787849.4441528
1768787849451.965,1497.4358974358972,,0,-1,1768787849.451965
1768787849459.7778,1498.9010989010987,,0,-1,1768787849.4597778
1768787849467.5903,1501.098901098901,,0,-1,1768787849.4675903
1768787849475.4028,1501.098901098901,,0,-1,1768787849.4754028
1768787849483.215,1497.4358974358972,,0,-1,1768787849.483215
1768787849491.0278,1495.2380952380952,,0,-1,1768787849.4910278
1768787849498.8403,1493.7728937728937,,0,-1,1768787849.4988403
1768787849506.6528,1493.7728937728937,,0,-1,1768787849.5066528
1768787849514.465,1493.040293040293,,0,-1,1768787849.514465
1768787849522.2778,1489.3772893772891,,0,-1,1768787849.5222778
1768787849530.0903,1484.9816849816848,,0,-1,1768787849.5300903
1768787849537.9028,1480.5860805860805,,0,-1,1768787849.5379028
1768787849545.715,1475.4578754578754,,0,-1,1768787849.545715
1768787849553.5278,1469.5970695970695,,0,-1,1768787849.5535278
1768787849561.3403,1463.7362637362637,,0,-1,1768787849.5613403
1768787849569.1528,1459.3406593406592,,0,-1,1768787849.5691528
1768787849576.965,1458.6080586080584,,0,-1,1768787849.576965
1768787849584.7778,1457.875457875458,,0,-1,1768787849.5847778
1768787849592.5903,1454.212454212454,,0,-1,1768787849.5925903
1768787849600.4028,1445.4212454212454,,0,-1,1768787849.6004028
1768787849608.215,1437.362637362637,,0,-1,1768787849.608215
1768787849616.0278,1430.7692307692307,,0,-1,1768787849.6160278
1768787849623.8403,1427.106227106227,,0,-1,1768787849.6238403
1768787849631.6528,1425.6410256410256,,0,-1,1768787849.6316528
1768787849639.465,1424.175824175824,,0,-1,1768787849.639465
1768787849647.2778,1424.9084249084249,,0,-1,1768787849.6472778
1768787849655.0903,1427.106227106227,,0,-1,1768787849.6550903
1768787849662.9028,1432.9670329670328,,0,-1,1768787849.6629028
1768787849670.715,1435.8974358974358,,0,-1,1768787849.670715
1768787849678.5278,1440.29304029304,,0,-1,1768787849.6785278
1768787849686.3403,1443.956043956044,,0,-1,1768787849.6863403
1768787849694.1528,1445.4212454212454,,0,-1,1768787849.6941528
1768787849701.965,1442.4908424908424,,0,-1,1768787849.701965
1768787849709.7778,1437.362637362637,,0,-1,1768787849.7097778
1768787849717.5903,1430.03663003663,,0,-1,1768787849.7175903
1768787849725.4028,1430.7692307692307,,0,-1,1768787849.7254028
1768787849733.215,1432.2344322344322,,0,-1,1768787849.733215
1768787849741.0278,1432.9670329670328,,0,-1,1768787849.7410278
1768787849748.8403,1430.7692307692307,,0,-1,1768787849.7488403
1768787849756.6528,1427.106227106227,,0,-1,1768787849.7566528
1768787849764.465,1425.6410256410256,,0,-1,1768787849.764465
1768787849772.2778,1423.4432234432234,,0,-1,1768787849.7722778
1768787849780.0903,1424.175824175824,,0,-1,1768787849.7800903
1768787849787.9028,1430.03663003663,,0,-1,1768787849.7879028
1768787849795.715,1431.5018315018317,,0,-1,1768787849.795715
1768787849803.5278,1432.2344322344322,,0,-1,1768787849.8035278
1768787849811.3403,1430.03663003663,,0,-1,1768787849.8113403
1768787849819.1528,1424.9084249084249,,0,-1,1768787849.8191528
1768787849826.965,1421.245421245421,,0,-1,1768787849.826965
1768787849834.7778,1422.7106227106226,,0,-1,1768787849.8347778
1768787849842.5903,1421.245421245421,,0,-1,1768787849.8425903
1768787849850.4028,1421.9780219780218,,0,-1,1768787849.8504028
1768787849858.215,1422.7106227106226,,0,-1,1768787849.858215
1768787849866.0278,1416.117216117216,,0,-1,1768787849.8660278
1768787849873.8403,1409.5238095238094,,0,-1,1768787849.8738403
1768787849881.6528,1403.6630036630036,,0,-1,1768787849.8816528
1768787849889.465,1393.4065934065934,,0,-1,1768787849.889465
1768787849897.2778,1387.5457875457876,,0,-1,1768787849.8972778
1768787849905.0903,1387.5457875457876,,0,-1,1768787849.9050903
1768787849912.9028,1381.6849816849815,,0,-1,1768787849.9129028
1768787849920.715,1378.7545787545787,,0,-1,1768787849.920715
1768787849928.5278,1375.091575091575,,0,-1,1768787849.9285278
1768787849936.3403,1368.4981684981683,,0,-1,1768787849.9363403
1768787849944.1528,1369.230769230769,,0,-1,1768787849.9441528
1768787849951.965,1367.032967032967,,0,-1,1768787849.951965
1768787849959.7778,1370.6959706959706,,0,-1,1768787849.9597778
1768787849967.5903,1378.021978021978,,0,-1,1768787849.9675903
1768787849975.4028,1383.150183150183,,0,-1,1768787849.9754028
1768787849983.215,1390.4761904761904,,0,-1,1768787849.983215
1768787849991.0278,1389.7435897435896,,0,-1,1768787849.9910278
1768787849998.8403,1383.8827838827838,,0,-1,1768787849.9988403
1768787850006.6528,1384.6153846153843,,0,-1,1768787850.0066528
1768787850014.465,1384.6153846153843,,0,-1,1768787850.014465
1768787850022.2778,1384.6153846153843,,0,-1,1768787850.0222778
1768787850030.0903,1385.3479853479853,,0,-1,1768787850.0300903
1768787850037.9028,1380.2197802197802,,0,-1,1768787850.0379028
1768787850045.715,1375.8241758241757,,0,-1,1768787850.045715
1768787850053.5278,1372.161172161172,,0,-1,1768787850.0535278
1768787850061.3403,1364.8351648351647,,0,-1,1768787850.0613403
1768787850069.1528,1358.974358974359,,0,-1,1768787850.0691528
1768787850076.965,1360.4395604395604,,0,-1,1768787850.076965
1768787850084.7778,1360.4395604395604,,0,-1,1768787850.0847778
1768787850092.5903,1358.241758241758,,0,-1,1768787850.0925903
1768787850100.4028,1361.1721611721612,,0,-1,1768787850.1004028
1768787850108.215,1360.4395604395604,,0,-1,1768787850.108215
1768787850116.0278,1358.241758241758,,0,-1,1768787850.1160278
1768787850123.8403,1361.1721611721612,,0,-1,1768787850.1238403
1768787850131.6528,1359.7069597069597,,0,-1,1768787850.1316528
1768787850139.465,1361.904761904762,,0,-1,1768787850.139465
1768787850147.2778,1358.241758241758,,0,-1,1768787850.1472778
1768787850155.0903,1356.043956043956,,0,-1,1768787850.1550903
1768787850162.9028,1350.9157509157508,,0,-1,1768787850.1629028
1768787850170.715,1347.985347985348,,0,-1,1768787850.170715
1768787850178.5278,1346.5201465201465,,0,-1,1768787850.1785278
1768787850186.3403,1341.3919413919414,,0,-1,1768787850.1863403
1768787850194.1528,1342.857142857143,,0,-1,1768787850.1941528
1768787850201.965,1341.3919413919414,,0,-1,1768787850.201965
1768787850209.7778,1338.4615384615383,,0,-1,1768787850.2097778
1768787850217.5903,1335.5311355311355,,0,-1,1768787850.2175903
1768787850225.4028,1336.263736263736,,0,-1,1768787850.2254028
1768787850233.215,1338.4615384615383,,0,-1,1768787850.233215
1768787850241.0278,1341.3919413919414,,0,-1,1768787850.2410278
1768787850248.8403,1353.8461538461538,,0,-1,1768787850.2488403
1768787850256.6528,1364.102564102564,,0,-1,1768787850.2566528
1768787850264.465,1377.2893772893772,,0,-1,1768787850.264465
1768787850272.2778,1392.6739926739926,,0,-1,1768787850.2722778
1768787850280.0903,1402.9304029304028,,0,-1,1768787850.2800903
1768787850287.9028,1416.8498168498168,,0,-1,1768787850.2879028
1768787850295.715,1431.5018315018317,,0,-1,1768787850.295715
1768787850303.5278,1439.5604395604394,,0,-1,1768787850.3035278
1768787850311.3403,1447.6190476190477,,0,-1,1768787850.3113403
1768787850319.1528,1453.479853479853,,0,-1,1768787850.3191528
1768787850326.965,1453.479853479853,,0,-1,1768787850.326965
1768787850334.7778,1457.875457875458,,0,-1,1768787850.3347778
1768787850342.5903,1457.875457875458,,0,-1,1768787850.3425903
1768787850350.4028,1460.07326007326,,0,-1,1768787850.3504028
1768787850358.215,1465.201465201465,,0,-1,1768787850.358215
1768787850366.0278,1473.992673992674,,0,-1,1768787850.3660278
1768787850373.8403,1485.7142857142856,,1,2,1768787850.3738403
1768787850381.6528,1494.5054945054944,,1,2,1768787850.3816528
1768787850389.465,1506.227106227106,,1,2,1768787850.389465
1768787850397.2778,1510.6227106227104,,1,2,1768787850.3972778
1768787850405.0903,1520.8791208791208,,1,2,1768787850.4050903
1768787850412.9028,1522.3443223443223,,1,2,1768787850.4129028
1768787850420.715,1520.8791208791208,,1,2,1768787850.420715
1768787850428.5278,1519.4139194139193,,1,2,1768787850.4285278
1768787850436.3403,1513.5531135531137,,1,2,1768787850.4363403
1768787850444.1528,1511.3553113553112,,1,2,1768787850.4441528
1768787850451.965,1507.6923076923076,,1,2,1768787850.451965
1768787850459.7778,1502.5641025641023,,1,2,1768787850.4597778
1768787850467.5903,1501.098901098901,,1,2,1768787850.4675903
1768787850475.4028,1493.040293040293,,1,2,1768787850.4754028
1768787850483.215,1490.10989010989,,1,2,1768787850.483215
1768787850491.0278,1487.9120879120878,,1,2,1768787850.4910278
1768787850498.8403,1484.2490842490845,,1,2,1768787850.4988403
1768787850506.6528,1486.4468864468863,,1,2,1768787850.5066528
1768787850514.465,1484.9816849816848,,1,2,1768787850.514465
1768787850522.2778,1487.179487179487,,1,2,1768787850.5222778
1768787850530.0903,1490.8424908424906,,1,2,1768787850.5300903
1768787850537.9028,1490.10989010989,,1,2,1768787850.5379028
1768787850545.715,1487.9120879120878,,1,2,1768787850.545715
1768787850553.5278,1476.923076923077,,1,2,1768787850.5535278
1768787850561.3403,1468.8644688644688,,1,2,1768787850.5613403
1768787850569.1528,1462.2710622710622,,1,2,1768787850.5691528
1768787850576.965,1460.07326007326,,1,2,1768787850.576965
1768787850584.7778,1463.003663003663,,1,2,1768787850.5847778
1768787850592.5903,1460.805860805861,,1,2,1768787850.5925903
1768787850600.4028,1460.805860805861,,1,2,1768787850.6004028
1768787850608.215,1464.4688644688645,,1,2,1768787850.608215
1768787850616.0278,1464.4688644688645,,1,2,1768787850.6160278
1768787850623.8403,1464.4688644688645,,1,2,1768787850.6238403
1768787850631.6528,1466.6666666666663,,1,2,1768787850.6316528
1768787850639.465,1465.9340659340658,,1,2,1768787850.639465
1768787850647.2778,1463.7362637362637,,1,2,1768787850.6472778
1768787850655.0903,1463.7362637362637,,1,2,1768787850.6550903
1768787850662.9028,1459.3406593406592,,1,2,1768787850.6629028
1768787850670.715,1458.6080586080584,,1,2,1768787850.670715
1768787850678.5278,1452.7472527472526,,1,2,1768787850.6785278
1768787850686.3403,1440.29304029304,,1,2,1768787850.6863403
1768787850694.1528,1431.5018315018317,,1,2,1768787850.6941528
1768787850701.965,1423.4432234432234,,1,2,1768787850.701965
1768787850709.7778,1417.5824175824175,,1,2,1768787850.7097778
1768787850717.5903,1421.9780219780218,,1,2,1768787850.7175903
1768787850725.4028,1422.7106227106226,,1,2,1768787850.7254028
1768787850733.215,1425.6410256410256,,1,2,1768787850.733215
1768787850741.0278,1429.3040293040292,,1,2,1768787850.7410278
1768787850748.8403,1429.3040293040292,,1,2,1768787850.7488403
1768787850756.6528,1431.5018315018317,,1,2,1768787850.7566528
1768787850764.465,1429.3040293040292,,1,2,1768787850.764465
1768787850772.2778,1422.7106227106226,,1,2,1768787850.7722778
1768787850780.0903,1421.245421245421,,1,2,1768787850.7800903
1768787850787.9028,1422.7106227106226,,1,2,1768787850.7879028
1768787850795.715,1422.7106227106226,,1,2,1768787850.795715
1768787850803.5278,1419.7802197802198,,1,2,1768787850.8035278
1768787850811.3403,1418.3150183150185,,1,2,1768787850.8113403
1768787850819.1528,1411.7216117216117,,1,2,1768787850.8191528
1768787850826.965,1403.6630036630036,,1,2,1768787850.826965
1768787850834.7778,1399.2673992673992,,1,2,1768787850.8347778
1768787850842.5903,1398.5347985347985,,1,2,1768787850.8425903
1768787850850.4028,1400.0,,1,2,1768787850.8504028
1768787850858.215,1399.2673992673992,,1,2,1768787850.858215
1768787850866.0278,1403.6630036630036,,1,2,1768787850.8660278
1768787850873.8403,1400.7326007326003,,1,2,1768787850.8738403
1768787850881.6528,1396.3369963369962,,1,2,1768787850.8816528
1768787850889.465,1394.8717948717947,,1,2,1768787850.889465
1768787850897.2778,1391.2087912087911,,1,2,1768787850.8972778
1768787850905.0903,1386.8131868131868,,1,2,1768787850.9050903
1768787850912.9028,1383.8827838827838,,1,2,1768787850.9129028
1768787850920.715,1375.8241758241757,,1,2,1768787850.920715
1768787850928.5278,1367.032967032967,,1,2,1768787850.9285278
1768787850936.3403,1367.032967032967,,1,2,1768787850.9363403
1768787850944.1528,1368.4981684981683,,1,2,1768787850.9441528
1768787850951.965,1372.8937728937728,,1,2,1768787850.951965
1768787850959.7778,1383.150183150183,,1,2,1768787850.9597778
1768787850967.5903,1390.4761904761904,,1,2,1768787850.9675903
1768787850975.4028,1394.139194139194,,1,2,1768787850.9754028
1768787850983.215,1397.069597069597,,1,2,1768787850.983215
1768787850991.0278,1394.8717948717947,,1,2,1768787850.9910278
1768787850998.8403,1399.2673992673992,,1,2,1768787850.9988403
1768787851006.6528,1397.8021978021975,,1,2,1768787851.0066528
1768787851014.465,1396.3369963369962,,1,2,1768787851.014465
1768787851022.2778,1393.4065934065934,,1,2,1768787851.0222778
1768787851030.0903,1386.080586080586,,1,2,1768787851.0300903
1768787851037.9028,1376.5567765567764,,1,2,1768787851.0379028
1768787851045.715,1372.8937728937728,,1,2,1768787851.045715
1768787851053.5278,1367.032967032967,,1,2,1768787851.0535278
1768787851061.3403,1366.3003663003662,,1,2,1768787851.0613403
1768787851069.1528,1367.032967032967,,1,2,1768787851.0691528
1768787851076.965,1361.904761904762,,1,2,1768787851.076965
1768787851084.7778,1360.4395604395604,,1,2,1768787851.0847778
1768787851092.5903,1364.102564102564,,1,2,1768787851.0925903
1768787851100.4028,1367.7655677655678,,1,2,1768787851.1004028
1768787851108.215,1372.8937728937728,,1,2,1768787851.108215
1768787851116.0278,1380.2197802197802,,1,2,1768787851.1160278
1768787851123.8403,1381.6849816849815,,1,2,1768787851.1238403
1768787851131.6528,1386.080586080586,,1,2,1768787851.1316528
1768787851139.465,1389.0109890109889,,1,2,1768787851.139465
1768787851147.2778,1387.5457875457876,,1,2,1768787851.1472778
1768787851155.0903,1386.8131868131868,,1,2,1768787851.1550903
1768787851162.9028,1379.4871794871794,,1,2,1768787851.1629028
1768787851170.715,1375.8241758241757,,1,2,1768787851.170715
1768787851178.5278,1366.3003663003662,,1,2,1768787851.1785278
1768787851186.3403,1353.113553113553,,1,2,1768787851.1863403
1768787851194.1528,1346.5201465201465,,1,2,1768787851.1941528
1768787851201.965,1344.3223443223442,,1,2,1768787851.201965
1768787851209.7778,1338.4615384615383,,1,2,1768787851.2097778
1768787851217.5903,1338.4615384615383,,1,2,1768787851.2175903
1768787851225.4028,1334.065934065934,,1,2,1768787851.2254028
1768787851233.215,1333.3333333333333,,1,2,1768787851.233215
1768787851241.0278,1331.135531135531,,1,2,1768787851.2410278
1768787851248.8403,1331.8681318681315,,1,2,1768787851.2488403
1768787851256.6528,1336.263736263736,,1,2,1768787851.2566528
1768787851264.465,1336.263736263736,,1,2,1768787851.264465
1768787851272.2778,1339.194139194139,,1,2,1768787851.2722778
1768787851280.0903,1342.124542124542,,1,2,1768787851.2800903
1768787851287.9028,1345.054945054945,,1,2,1768787851.2879028
1768787851295.715,1351.6483516483515,,1,2,1768787851.295715
1768787851303.5278,1361.1721611721612,,1,2,1768787851.3035278
1768787851311.3403,1368.4981684981683,,1,2,1768787851.3113403
1768787851319.1528,1377.2893772893772,,1,2,1768787851.3191528
1768787851326.965,1385.3479853479853,,1,2,1768787851.326965
1768787851334.7778,1390.4761904761904,,1,2,1768787851.3347778
1768787851342.5903,1395.6043956043954,,1,2,1768787851.3425903
1768787851350.4028,1398.5347985347985,,1,2,1768787851.3504028
1768787851358.215,1404.3956043956043,,1,2,1768787851.358215
1768787851366.0278,1413.1868131868132,,1,2,1768787851.3660278
1768787851373.8403,1426.3736263736262,,1,2,1768787851.3738403
1768787851381.6528,1437.362637362637,,1,2,1768787851.3816528
1768787851389.465,1446.153846153846,,1,2,1768787851.389465
1768787851397.2778,1457.142857142857,,1,2,1768787851.3972778
1768787851405.0903,1467.3992673992673,,1,2,1768787851.4050903
1768787851412.9028,1473.992673992674,,1,2,1768787851.4129028
1768787851420.715,1476.190476190476,,1,2,1768787851.420715
1768787851428.5278,1477.6556776556777,,1,2,1768787851.4285278
1768787851436.3403,1478.3882783882782,,1,2,1768787851.4363403
1768787851444.1528,1482.051282051282,,1,2,1768787851.4441528
1768787851451.965,1484.9816849816848,,1,2,1768787851.451965
1768787851459.7778,1487.179487179487,,1,2,1768787851.4597778
1768787851467.5903,1490.8424908424906,,1,2,1768787851.4675903
1768787851475.4028,1495.970695970696,,1,2,1768787851.4754028
1768787851483.215,1495.970695970696,,1,2,1768787851.483215
1768787851491.0278,1493.040293040293,,1,2,1768787851.4910278
1768787851498.8403,1488.6446886446886,,1,2,1768787851.4988403
1768787851506.6528,1489.3772893772891,,1,2,1768787851.5066528
1768787851514.465,1491.5750915750914,,1,2,1768787851.514465
1768787851522.2778,1487.9120879120878,,1,2,1768787851.5222778
1768787851530.0903,1481.3186813186812,,1,2,1768787851.5300903
1768787851537.9028,1478.3882783882782,,1,2,1768787851.5379028
1768787851545.715,1479.8534798534797,,1,2,1768787851.545715
1768787851553.5278,1474.7252747252746,,1,2,1768787851.5535278
1768787851561.3403,1468.131868131868,,1,2,1768787851.5613403
1768787851569.1528,1461.5384615384614,,1,2,1768787851.5691528
1768787851576.965,1457.142857142857,,1,2,1768787851.576965
1768787851584.7778,1449.084249084249,,1,2,1768787851.5847778
1768787851592.5903,1439.5604395604394,,1,2,1768787851.5925903
1768787851600.4028,1432.2344322344322,,1,2,1768787851.6004028
1768787851608.215,1427.106227106227,,1,2,1768787851.608215
1768787851616.0278,1427.106227106227,,1,2,1768787851.6160278
1768787851623.8403,1426.3736263736262,,1,2,1768787851.6238403
1768787851631.6528,1426.3736263736262,,1,2,1768787851.6316528
1768787851639.465,1428.5714285714284,,1,2,1768787851.639465
1768787851647.2778,1430.03663003663,,1,2,1768787851.6472778
1768787851655.0903,1430.7692307692307,,1,2,1768787851.6550903
1768787851662.9028,1435.164835164835,,1,2,1768787851.6629028
1768787851670.715,1440.29304029304,,1,2,1768787851.670715
1768787851678.5278,1441.0256410256409,,1,2,1768787851.6785278
1768787851686.3403,1441.7582417582416,,1,2,1768787851.6863403
1768787851694.1528,1441.7582417582416,,1,2,1768787851.6941528
1768787851701.965,1441.0256410256409,,1,2,1768787851.701965
1768787851709.7778,1438.8278388278388,,1,2,1768787851.7097778
1768787851717.5903,1438.095238095238,,1,2,1768787851.7175903
1768787851725.4028,1437.362637362637,,1,2,1768787851.7254028
1768787851733.215,1437.362637362637,,1,2,1768787851.733215
1768787851741.0278,1438.095238095238,,1,2,1768787851.7410278
1768787851748.8403,1437.362637362637,,1,2,1768787851.7488403
1768787851756.6528,1432.9670329670328,,1,2,1768787851.7566528
1768787851764.465,1426.3736263736262,,1,2,1768787851.764465
1768787851772.2778,1419.7802197802198,,1,2,1768787851.7722778
1768787851780.0903,1413.1868131868132,,1,2,1768787851.7800903
1768787851787.9028,1407.3260073260071,,1,2,1768787851.7879028
1768787851795.715,1400.7326007326003,,1,2,1768787851.795715
1768787851803.5278,1396.3369963369962,,1,2,1768787851.8035278
1768787851811.3403,1389.7435897435896,,1,2,1768787851.8113403
1768787851819.1528,1384.6153846153843,,1,2,1768787851.8191528
1768787851826.965,1380.2197802197802,,1,2,1768787851.826965
1768787851834.7778,1378.7545787545787,,1,2,1768787851.8347778
1768787851842.5903,1378.021978021978,,1,2,1768787851.8425903
1768787851850.4028,1380.952380952381,,1,2,1768787851.8504028
1768787851858.215,1383.150183150183,,1,2,1768787851.858215
1768787851866.0278,1383.8827838827838,,1,2,1768787851.8660278
1768787851873.8403,1385.3479853479853,,1,2,1768787851.8738403
1768787851881.6528,1383.8827838827838,,1,2,1768787851.8816528
1768787851889.465,1381.6849816849815,,1,2,1768787851.889465
1768787851897.2778,1378.021978021978,,1,2,1768787851.8972778
1768787851905.0903,1375.8241758241757,,1,2,1768787851.9050903
1768787851912.9028,1378.021978021978,,1,2,1768787851.9129028
1768787851920.715,1382.4175824175825,,1,2,1768787851.920715
1768787851928.5278,1387.5457875457876,,1,2,1768787851.9285278
1768787851936.3403,1391.2087912087911,,1,2,1768787851.9363403
1768787851944.1528,1395.6043956043954,,1,2,1768787851.9441528
1768787851951.965,1397.069597069597,,1,2,1768787851.951965
1768787851959.7778,1395.6043956043954,,1,2,1768787851.9597778
1768787851967.5903,1394.139194139194,,1,2,1768787851.9675903
1768787851975.4028,1393.4065934065934,,1,2,1768787851.9754028
1768787851983.215,1388.278388278388,,1,2,1768787851.983215
1768787851991.0278,1386.080586080586,,1,2,1768787851.9910278
1768787851998.8403,1386.080586080586,,1,2,1768787851.9988403
1768787852006.6528,1387.5457875457876,,1,2,1768787852.0066528
1768787852014.465,1389.7435897435896,,1,2,1768787852.014465
1768787852022.2778,1389.7435897435896,,1,2,1768787852.0222778
1768787852030.0903,1386.8131868131868,,1,2,1768787852.0300903
1768787852037.9028,1381.6849816849815,,1,2,1768787852.0379028
1768787852045.715,1373.6263736263736,,1,2,1768787852.045715
1768787852053.5278,1368.4981684981683,,1,2,1768787852.0535278
1768787852061.3403,1364.102564102564,,1,2,1768787852.0613403
1768787852069.1528,1358.974358974359,,1,2,1768787852.0691528
1768787852076.965,1354.5787545787546,,1,2,1768787852.076965
1768787852084.7778,1352.3809523809523,,1,2,1768787852.0847778
1768787852092.5903,1353.113553113553,,1,2,1768787852.0925903
1768787852100.4028,1354.5787545787546,,1,2,1768787852.1004028
1768787852108.215,1357.5091575091574,,1,2,1768787852.108215
1768787852116.0278,1362.6373626373625,,1,2,1768787852.1160278
1768787852123.8403,1369.230769230769,,1,2,1768787852.1238403
1768787852131.6528,1376.5567765567764,,1,2,1768787852.1316528
1768787852139.465,1380.952380952381,,1,2,1768787852.139465
1768787852147.2778,1380.952380952381,,1,2,1768787852.1472778
1768787852155.0903,1377.2893772893772,,1,2,1768787852.1550903
1768787852162.9028,1370.6959706959706,,1,2,1768787852.1629028
1768787852170.715,1361.904761904762,,1,2,1768787852.170715
1768787852178.5278,1351.6483516483515,,1,2,1768787852.1785278
1768787852186.3403,1342.124542124542,,1,2,1768787852.1863403
1768787852194.1528,1334.7985347985348,,1,2,1768787852.1941528
1768787852201.965,1325.2747252747251,,1,2,1768787852.201965
1768787852209.7778,1320.14652014652,,1,2,1768787852.2097778
1768787852217.5903,1317.9487179487178,,1,2,1768787852.2175903
1768787852225.4028,1320.14652014652,,1,2,1768787852.2254028
1768787852233.215,1321.6117216117216,,1,2,1768787852.233215
1768787852241.0278,1323.076923076923,,1,2,1768787852.2410278
1768787852248.8403,1323.076923076923,,1,2,1768787852.2488403
1768787852256.6528,1324.5421245421244,,1,2,1768787852.2566528
1768787852264.465,1328.2051282051282,,1,2,1768787852.264465
1768787852272.2778,1333.3333333333333,,1,2,1768787852.2722778
1768787852280.0903,1337.7289377289376,,1,2,1768787852.2800903
1768787852287.9028,1340.6593406593406,,1,2,1768787852.2879028
1768787852295.715,1345.054945054945,,1,2,1768787852.295715
1768787852303.5278,1352.3809523809523,,1,2,1768787852.3035278
1768787852311.3403,1364.8351648351647,,1,2,1768787852.3113403
1768787852319.1528,1379.4871794871794,,1,2,1768787852.3191528
1768787852326.965,1395.6043956043954,,1,2,1768787852.326965
1768787852334.7778,1408.058608058608,,1,2,1768787852.3347778
1768787852342.5903,1420.5128205128203,,1,2,1768787852.3425903
1768787852350.4028,1430.7692307692307,,1,2,1768787852.3504028
1768787852358.215,1438.8278388278388,,1,2,1768787852.358215
1768787852366.0278,1443.2234432234432,,1,2,1768787852.3660278
1768787852373.8403,1444.688644688645,,1,2,1768787852.3738403
1768787852381.6528,1446.153846153846,,1,2,1768787852.3816528
1768787852389.465,1447.6190476190477,,1,2,1768787852.389465
1768787852397.2778,1446.8864468864467,,1,2,1768787852.3972778
1768787852405.0903,1443.2234432234432,,1,2,1768787852.4050903
1768787852412.9028,1445.4212454212454,,1,2,1768787852.4129028
1768787852420.715,1444.688644688645,,1,2,1768787852.420715
1768787852428.5278,1447.6190476190477,,1,2,1768787852.4285278
1768787852436.3403,1452.7472527472526,,1,2,1768787852.4363403
1768787852444.1528,1459.3406593406592,,1,2,1768787852.4441528
1768787852451.965,1464.4688644688645,,1,2,1768787852.451965
1768787852459.7778,1465.201465201465,,1,2,1768787852.4597778
1768787852467.5903,1463.003663003663,,1,2,1768787852.4675903
1768787852475.4028,1458.6080586080584,,1,2,1768787852.4754028
1768787852483.215,1452.014652014652,,1,2,1768787852.483215
1768787852491.0278,1443.2234432234432,,1,2,1768787852.4910278
1768787852498.8403,1435.164835164835,,1,2,1768787852.4988403
1768787852506.6528,1430.7692307692307,,1,2,1768787852.5066528
1768787852514.465,1428.5714285714284,,1,2,1768787852.514465
1768787852522.2778,1426.3736263736262,,1,2,1768787852.5222778
1768787852530.0903,1425.6410256410256,,1,2,1768787852.5300903
1768787852537.9028,1421.245421245421,,1,2,1768787852.5379028
1768787852545.715,1418.3150183150185,,1,2,1768787852.545715
1768787852553.5278,1417.5824175824175,,1,2,1768787852.5535278
1768787852561.3403,1415.3846153846152,,1,2,1768787852.5613403
1768787852569.1528,1414.6520146520145,,1,2,1768787852.5691528
1768787852576.965,1413.9194139194135,,1,2,1768787852.576965
1768787852584.7778,1413.9194139194135,,1,2,1768787852.5847778
1768787852592.5903,1414.6520146520145,,1,2,1768787852.5925903
1768787852600.4028,1417.5824175824175,,1,2,1768787852.6004028
1768787852608.215,1419.047619047619,,1,2,1768787852.608215
1768787852616.0278,1423.4432234432234,,1,2,1768787852.6160278
1768787852623.8403,1427.106227106227,,1,2,1768787852.6238403
1768787852631.6528,1431.5018315018317,,1,2,1768787852.6316528
1768787852639.465,1435.164835164835,,1,2,1768787852.639465
1768787852647.2778,1435.8974358974358,,1,2,1768787852.6472778
1768787852655.0903,1433.6996336996335,,1,2,1768787852.6550903
1768787852662.9028,1429.3040293040292,,1,2,1768787852.6629028
1768787852670.715,1424.175824175824,,1,2,1768787852.670715
1768787852678.5278,1420.5128205128203,,1,2,1768787852.6785278
1768787852686.3403,1418.3150183150185,,1,2,1768787852.6863403
1768787852694.1528,1418.3150183150185,,1,2,1768787852.6941528
1768787852701.965,1418.3150183150185,,1,2,1768787852.701965
1768787852709.7778,1416.8498168498168,,1,2,1768787852.7097778
1768787852717.5903,1413.9194139194135,,1,2,1768787852.7175903
1768787852725.4028,1409.5238095238094,,1,2,1768787852.7254028
1768787852733.215,1408.058608058608,,1,2,1768787852.733215
1768787852741.0278,1408.058608058608,,1,2,1768787852.7410278
1768787852748.8403,1408.058608058608,,1,2,1768787852.7488403
1768787852756.6528,1404.3956043956043,,1,2,1768787852.7566528
1768787852764.465,1400.0,,1,2,1768787852.764465
1768787852772.2778,1392.6739926739926,,1,2,1768787852.7722778
1768787852780.0903,1386.080586080586,,1,2,1768787852.7800903
1768787852787.9028,1380.2197802197802,,1,2,1768787852.7879028
1768787852795.715,1374.3589743589744,,1,2,1768787852.795715
1768787852803.5278,1369.230769230769,,1,2,1768787852.8035278
1768787852811.3403,1362.6373626373625,,1,2,1768787852.8113403
1768787852819.1528,1356.043956043956,,1,2,1768787852.8191528
1768787852826.965,1350.9157509157508,,1,2,1768787852.826965
1768787852834.7778,1349.4505494505493,,1,2,1768787852.8347778
1768787852842.5903,1350.9157509157508,,1,2,1768787852.8425903
1768787852850.4028,1354.5787545787546,,1,2,1768787852.8504028
1768787852858.215,1358.241758241758,,1,2,1768787852.858215
1768787852866.0278,1359.7069597069597,,1,2,1768787852.8660278
1768787852873.8403,1361.1721611721612,,1,2,1768787852.8738403
1768787852881.6528,1361.1721611721612,,1,2,1768787852.8816528
1768787852889.465,1358.241758241758,,1,2,1768787852.889465
1768787852897.2778,1354.5787545787546,,1,2,1768787852.8972778
1768787852905.0903,1352.3809523809523,,1,2,1768787852.9050903
1768787852912.9028,1352.3809523809523,,1,2,1768787852.9129028
1768787852920.715,1349.4505494505493,,1,2,1768787852.920715
1768787852928.5278,1349.4505494505493,,1,2,1768787852.9285278
1768787852936.3403,1353.8461538461538,,1,2,1768787852.9363403
1768787852944.1528,1358.241758241758,,1,2,1768787852.9441528
1768787852951.965,1363.3699633699632,,1,2,1768787852.951965
1768787852959.7778,1364.102564102564,,1,2,1768787852.9597778
1768787852967.5903,1363.3699633699632,,1,2,1768787852.9675903
1768787852975.4028,1359.7069597069597,,1,2,1768787852.9754028
1768787852983.215,1356.043956043956,,1,2,1768787852.983215
1768787852991.0278,1356.7765567765566,,1,2,1768787852.9910278
1768787852998.8403,1356.7765567765566,,1,2,1768787852.9988403
1768787853006.6528,1353.113553113553,,1,2,1768787853.0066528
1768787853014.465,1350.9157509157508,,1,2,1768787853.014465
1768787853022.2778,1354.5787545787546,,1,2,1768787853.0222778
1768787853030.0903,1358.974358974359,,1,2,1768787853.0300903
1768787853037.9028,1358.974358974359,,1,2,1768787853.0379028
1768787853045.715,1358.974358974359,,1,2,1768787853.045715
1768787853053.5278,1358.241758241758,,1,2,1768787853.0535278
1768787853061.3403,1356.043956043956,,1,2,1768787853.0613403
1768787853069.1528,1347.985347985348,,0,-1,1768787853.0691528
1768787853076.965,1338.4615384615383,,0,-1,1768787853.076965
1768787853084.7778,1331.8681318681315,,0,-1,1768787853.0847778
1768787853092.5903,1326.007326007326,,0,-1,1768787853.0925903
1768787853100.4028,1321.6117216117216,,0,-1,1768787853.1004028
1768787853108.215,1325.2747252747251,,0,-1,1768787853.108215
1768787853116.0278,1329.6703296703297,,0,-1,1768787853.1160278
1768787853123.8403,1331.135531135531,,0,-1,1768787853.1238403
1768787853131.6528,1328.937728937729,,0,-1,1768787853.1316528
1768787853139.465,1326.007326007326,,0,-1,1768787853.139465
1768787853147.2778,1326.739926739927,,0,-1,1768787853.1472778
1768787853155.0903,1320.8791208791208,,0,-1,1768787853.1550903
1768787853162.9028,1311.3553113553112,,0,-1,1768787853.1629028
1768787853170.715,1306.9597069597069,,0,-1,1768787853.170715
1768787853178.5278,1308.4249084249084,,0,-1,1768787853.1785278
1768787853186.3403,1312.087912087912,,0,-1,1768787853.1863403
1768787853194.1528,1316.4835164835165,,0,-1,1768787853.1941528
1768787853201.965,1321.6117216117216,,0,-1,1768787853.201965
1768787853209.7778,1334.7985347985348,,0,-1,1768787853.2097778
1768787853217.5903,1345.7875457875457,,0,-1,1768787853.2175903
1768787853225.4028,1358.974358974359,,0,-1,1768787853.2254028
1768787853233.215,1365.5677655677655,,0,-1,1768787853.233215
1768787853241.0278,1372.8937728937728,,0,-1,1768787853.2410278
1768787853248.8403,1378.7545787545787,,0,-1,1768787853.2488403
1768787853256.6528,1379.4871794871794,,0,-1,1768787853.2566528
1768787853264.465,1384.6153846153843,,0,-1,1768787853.264465
1768787853272.2778,1391.2087912087911,,0,-1,1768787853.2722778
1768787853280.0903,1391.2087912087911,,0,-1,1768787853.2800903
1768787853287.9028,1395.6043956043954,,0,-1,1768787853.2879028
1768787853295.715,1405.128205128205,,0,-1,1768787853.295715
1768787853303.5278,1412.4542124542124,,0,-1,1768787853.3035278
1768787853311.3403,1422.7106227106226,,0,-1,1768787853.3113403
1768787853319.1528,1434.4322344322345,,0,-1,1768787853.3191528
1768787853326.965,1441.7582417582416,,0,-1,1768787853.326965
1768787853334.7778,1452.014652014652,,0,-1,1768787853.3347778
1768787853342.5903,1454.9450549450548,,0,-1,1768787853.3425903
1768787853350.4028,1458.6080586080584,,0,-1,1768787853.3504028
1768787853358.215,1459.3406593406592,,0,-1,1768787853.358215
1768787853366.0278,1452.014652014652,,0,-1,1768787853.3660278
1768787853373.8403,1442.4908424908424,,0,-1,1768787853.3738403
1768787853381.6528,1434.4322344322345,,0,-1,1768787853.3816528
1768787853389.465,1423.4432234432234,,0,-1,1768787853.389465
1768787853397.2778,1419.7802197802198,,0,-1,1768787853.3972778
1768787853405.0903,1413.9194139194135,,0,-1,1768787853.4050903
1768787853412.9028,1412.4542124542124,,0,-1,1768787853.4129028
1768787853420.715,1410.2564102564102,,0,-1,1768787853.420715
1768787853428.5278,1405.128205128205,,0,-1,1768787853.4285278
1768787853436.3403,1405.128205128205,,0,-1,1768787853.4363403
1768787853444.1528,1403.6630036630036,,0,-1,1768787853.4441528
1768787853451.965,1405.128205128205,,0,-1,1768787853.451965
1768787853459.7778,1407.3260073260071,,0,-1,1768787853.4597778
1768787853467.5903,1407.3260073260071,,0,-1,1768787853.4675903
1768787853475.4028,1408.058608058608,,0,-1,1768787853.4754028
1768787853483.215,1412.4542124542124,,0,-1,1768787853.483215
1768787853491.0278,1417.5824175824175,,0,-1,1768787853.4910278
1768787853498.8403,1420.5128205128203,,0,-1,1768787853.4988403
1768787853506.6528,1428.5714285714284,,0,-1,1768787853.5066528
1768787853514.465,1428.5714285714284,,0,-1,1768787853.514465
1768787853522.2778,1427.8388278388277,,0,-1,1768787853.5222778
1768787853530.0903,1429.3040293040292,,0,-1,1768787853.5300903
1768787853537.9028,1424.9084249084249,,0,-1,1768787853.5379028
1768787853545.715,1419.047619047619,,0,-1,1768787853.545715
1768787853553.5278,1409.5238095238094,,0,-1,1768787853.5535278
1768787853561.3403,1399.2673992673992,,0,-1,1768787853.5613403
1768787853569.1528,1394.8717948717947,,0,-1,1768787853.5691528
1768787853576.965,1387.5457875457876,,0,-1,1768787853.576965
1768787853584.7778,1385.3479853479853,,0,-1,1768787853.5847778
1768787853592.5903,1378.7545787545787,,0,-1,1768787853.5925903
1768787853600.4028,1378.021978021978,,0,-1,1768787853.6004028
1768787853608.215,1376.5567765567764,,0,-1,1768787853.608215
1768787853616.0278,1383.150183150183,,0,-1,1768787853.6160278
1768787853623.8403,1382.4175824175825,,0,-1,1768787853.6238403
1768787853631.6528,1384.6153846153843,,0,-1,1768787853.6316528
1768787853639.465,1381.6849816849815,,0,-1,1768787853.639465
1768787853647.2778,1381.6849816849815,,0,-1,1768787853.6472778
1768787853655.0903,1374.3589743589744,,0,-1,1768787853.6550903
1768787853662.9028,1373.6263736263736,,0,-1,1768787853.6629028
1768787853670.715,1365.5677655677655,,0,-1,1768787853.670715
1768787853678.5278,1358.974358974359,,0,-1,1768787853.6785278
1768787853686.3403,1356.043956043956,,0,-1,1768787853.6863403
1768787853694.1528,1351.6483516483515,,0,-1,1768787853.6941528
1768787853701.965,1345.054945054945,,0,-1,1768787853.701965
1768787853709.7778,1342.857142857143,,0,-1,1768787853.7097778
1768787853717.5903,1339.194139194139,,0,-1,1768787853.7175903
1768787853725.4028,1344.3223443223442,,0,-1,1768787853.7254028
1768787853733.215,1352.3809523809523,,0,-1,1768787853.733215
1768787853741.0278,1358.974358974359,,0,-1,1768787853.7410278
1768787853748.8403,1367.032967032967,,0,-1,1768787853.7488403
1768787853756.6528,1367.032967032967,,0,-1,1768787853.7566528
1768787853764.465,1369.230769230769,,0,-1,1768787853.764465
1768787853772.2778,1364.8351648351647,,0,-1,1768787853.7722778
1768787853780.0903,1363.3699633699632,,0,-1,1768787853.7800903
1768787853787.9028,1360.4395604395604,,0,-1,1768787853.7879028
1768787853795.715,1356.7765567765566,,0,-1,1768787853.795715
1768787853803.5278,1352.3809523809523,,0,-1,1768787853.8035278
1768787853811.3403,1350.9157509157508,,0,-1,1768787853.8113403
1768787853819.1528,1345.054945054945,,0,-1,1768787853.8191528
1768787853826.965,1343.5897435897434,,0,-1,1768787853.826965
1768787853834.7778,1338.4615384615383,,0,-1,1768787853.8347778
1768787853842.5903,1338.4615384615383,,0,-1,1768787853.8425903
1768787853850.4028,1342.124542124542,,0,-1,1768787853.8504028
1768787853858.215,1345.054945054945,,0,-1,1768787853.858215
1768787853866.0278,1350.9157509157508,,0,-1,1768787853.8660278
1768787853873.8403,1352.3809523809523,,0,-1,1768787853.8738403
1768787853881.6528,1351.6483516483515,,0,-1,1768787853.8816528
1768787853889.465,1347.985347985348,,0,-1,1768787853.889465
1768787853897.2778,1341.3919413919414,,0,-1,1768787853.8972778
1768787853905.0903,1340.6593406593406,,0,-1,1768787853.9050903
1768787853912.9028,1336.263736263736,,0,-1,1768787853.9129028
1768787853920.715,1336.263736263736,,0,-1,1768787853.920715
1768787853928.5278,1332.6007326007325,,0,-1,1768787853.9285278
1768787853936.3403,1336.263736263736,,0,-1,1768787853.9363403
1768787853944.1528,1341.3919413919414,,0,-1,1768787853.9441528
1768787853951.965,1350.18315018315,,0,-1,1768787853.951965
1768787853959.7778,1347.2527472527472,,0,-1,1768787853.9597778
1768787853967.5903,1344.3223443223442,,0,-1,1768787853.9675903
1768787853975.4028,1337.7289377289376,,0,-1,1768787853.9754028
1768787853983.215,1331.8681318681315,,0,-1,1768787853.983215
1768787853991.0278,1322.3443223443223,,0,-1,1768787853.9910278
1768787853998.8403,1317.216117216117,,0,-1,1768787853.9988403
1768787854006.6528,1313.5531135531137,,0,-1,1768787854.0066528
1768787854014.465,1317.216117216117,,0,-1,1768787854.014465
1768787854022.2778,1322.3443223443223,,0,-1,1768787854.0222778
1768787854030.0903,1330.4029304029302,,0,-1,1768787854.0300903
1768787854037.9028,1336.9963369963368,,0,-1,1768787854.0379028
1768787854045.715,1342.124542124542,,0,-1,1768787854.045715
1768787854053.5278,1345.054945054945,,0,-1,1768787854.0535278
1768787854061.3403,1344.3223443223442,,0,-1,1768787854.0613403
1768787854069.1528,1339.194139194139,,0,-1,1768787854.0691528
1768787854076.965,1333.3333333333333,,0,-1,1768787854.076965
1768787854084.7778,1334.065934065934,,0,-1,1768787854.0847778
1768787854092.5903,1333.3333333333333,,0,-1,1768787854.0925903
1768787854100.4028,1339.194139194139,,0,-1,1768787854.1004028
1768787854108.215,1344.3223443223442,,0,-1,1768787854.108215
1768787854116.0278,1350.9157509157508,,0,-1,1768787854.1160278
1768787854123.8403,1360.4395604395604,,0,-1,1768787854.1238403
1768787854131.6528,1363.3699633699632,,0,-1,1768787854.1316528
1768787854139.465,1368.4981684981683,,0,-1,1768787854.139465
1768787854147.2778,1370.6959706959706,,0,-1,1768787854.1472778
1768787854155.0903,1371.428571428571,,0,-1,1768787854.1550903
1768787854162.9028,1368.4981684981683,,0,-1,1768787854.1629028
1768787854170.715,1370.6959706959706,,0,-1,1768787854.170715
1768787854178.5278,1370.6959706959706,,0,-1,1768787854.1785278
1768787854186.3403,1375.091575091575,,0,-1,1768787854.1863403
1768787854194.1528,1374.3589743589744,,0,-1,1768787854.1941528
1768787854201.965,1380.2197802197802,,0,-1,1768787854.201965
1768787854209.7778,1386.080586080586,,0,-1,1768787854.2097778
1768787854217.5903,1400.7326007326003,,0,-1,1768787854.2175903
1768787854225.4028,1409.5238095238094,,0,-1,1768787854.2254028
1768787854233.215,1422.7106227106226,,0,-1,1768787854.233215
1768787854241.0278,1426.3736263736262,,0,-1,1768787854.2410278
1768787854248.8403,1430.7692307692307,,0,-1,1768787854.2488403
1768787854256.6528,1429.3040293040292,,0,-1,1768787854.2566528
1768787854264.465,1428.5714285714284,,0,-1,1768787854.264465
1768787854272.2778,1425.6410256410256,,0,-1,1768787854.2722778
1768787854280.0903,1426.3736263736262,,0,-1,1768787854.2800903
1768787854287.9028,1425.6410256410256,,0,-1,1768787854.2879028
1768787854295.715,1430.7692307692307,,0,-1,1768787854.295715
1768787854303.5278,1432.2344322344322,,0,-1,1768787854.3035278
1768787854311.3403,1436.6300366300366,,0,-1,1768787854.3113403
1768787854319.1528,1438.095238095238,,0,-1,1768787854.3191528
1768787854326.965,1440.29304029304,,0,-1,1768787854.326965
1768787854334.7778,1440.29304029304,,0,-1,1768787854.3347778
1768787854342.5903,1438.8278388278388,,0,-1,1768787854.3425903
1768787854350.4028,1436.6300366300366,,0,-1,1768787854.3504028
1768787854358.215,1426.3736263736262,,0,-1,1768787854.358215
1768787854366.0278,1419.7802197802198,,0,-1,1768787854.3660278
1768787854373.8403,1411.7216117216117,,0,-1,1768787854.3738403
1768787854381.6528,1405.8608058608058,,0,-1,1768787854.3816528
1768787854389.465,1400.7326007326003,,0,-1,1768787854.389465
1768787854397.2778,1402.197802197802,,0,-1,1768787854.3972778
1768787854405.0903,1399.2673992673992,,0,-1,1768787854.4050903
1768787854412.9028,1401.4652014652013,,0,-1,1768787854.4129028
1768787854420.715,1396.3369963369962,,0,-1,1768787854.420715
1768787854428.5278,1394.8717948717947,,0,-1,1768787854.4285278
1768787854436.3403,1386.080586080586,,0,-1,1768787854.4363403
1768787854444.1528,1381.6849816849815,,0,-1,1768787854.4441528
1768787854451.965,1377.2893772893772,,0,-1,1768787854.451965
1768787854459.7778,1380.2197802197802,,0,-1,1768787854.4597778
1768787854467.5903,1383.150183150183,,0,-1,1768787854.4675903
1768787854475.4028,1392.6739926739926,,0,-1,1768787854.4754028
1768787854483.215,1398.5347985347985,,0,-1,1768787854.483215
1768787854491.0278,1407.3260073260071,,0,-1,1768787854.4910278
1768787854498.8403,1407.3260073260071,,0,-1,1768787854.4988403
1768787854506.6528,1408.058608058608,,0,-1,1768787854.5066528
1768787854514.465,1410.2564102564102,,0,-1,1768787854.514465
1768787854522.2778,1408.7912087912086,,0,-1,1768787854.5222778
1768787854530.0903,1409.5238095238094,,0,-1,1768787854.5300903
1768787854537.9028,1403.6630036630036,,0,-1,1768787854.5379028
1768787854545.715,1393.4065934065934,,0,-1,1768787854.545715
1768787854553.5278,1386.8131868131868,,0,-1,1768787854.5535278
1768787854561.3403,1378.7545787545787,,0,-1,1768787854.5613403
1768787854569.1528,1372.8937728937728,,0,-1,1768787854.5691528
1768787854576.965,1368.4981684981683,,0,-1,1768787854.576965
1768787854584.7778,1361.904761904762,,0,-1,1768787854.5847778
1768787854592.5903,1361.904761904762,,0,-1,1768787854.5925903
1768787854600.4028,1358.241758241758,,0,-1,1768787854.6004028
1768787854608.215,1354.5787545787546,,0,-1,1768787854.608215
1768787854616.0278,1353.8461538461538,,0,-1,1768787854.6160278
1768787854623.8403,1350.9157509157508,,0,-1,1768787854.6238403
1768787854631.6528,1354.5787545787546,,0,-1,1768787854.6316528
1768787854639.465,1358.974358974359,,0,-1,1768787854.639465
1768787854647.2778,1360.4395604395604,,0,-1,1768787854.6472778
1768787854655.0903,1360.4395604395604,,0,-1,1768787854.6550903
1768787854662.9028,1363.3699633699632,,0,-1,1768787854.6629028
1768787854670.715,1358.974358974359,,0,-1,1768787854.670715
1768787854678.5278,1355.311355311355,,0,-1,1768787854.6785278
1768787854686.3403,1350.18315018315,,0,-1,1768787854.6863403
1768787854694.1528,1345.054945054945,,0,-1,1768787854.6941528
1768787854701.965,1347.2527472527472,,0,-1,1768787854.701965
1768787854709.7778,1350.18315018315,,0,-1,1768787854.7097778
1768787854717.5903,1353.8461538461538,,0,-1,1768787854.7175903
1768787854725.4028,1361.904761904762,,0,-1,1768787854.7254028
1768787854733.215,1363.3699633699632,,0,-1,1768787854.733215
1768787854741.0278,1362.6373626373625,,0,-1,1768787854.7410278
1768787854748.8403,1364.102564102564,,0,-1,1768787854.7488403
1768787854756.6528,1364.102564102564,,0,-1,1768787854.7566528
1768787854764.465,1368.4981684981683,,0,-1,1768787854.764465
1768787854772.2778,1369.230769230769,,0,-1,1768787854.7722778
1768787854780.0903,1368.4981684981683,,0,-1,1768787854.7800903
1768787854787.9028,1368.4981684981683,,0,-1,1768787854.7879028
1768787854795.715,1364.8351648351647,,0,-1,1768787854.795715
1768787854803.5278,1362.6373626373625,,0,-1,1768787854.8035278
1768787854811.3403,1361.904761904762,,0,-1,1768787854.8113403
1768787854819.1528,1355.311355311355,,0,-1,1768787854.8191528
1768787854826.965,1353.113553113553,,0,-1,1768787854.826965
1768787854834.7778,1347.2527472527472,,0,-1,1768787854.8347778
1768787854842.5903,1341.3919413919414,,0,-1,1768787854.8425903
1768787854850.4028,1337.7289377289376,,0,-1,1768787854.8504028
1768787854858.215,1336.263736263736,,0,-1,1768787854.858215
1768787854866.0278,1329.6703296703297,,0,-1,1768787854.8660278
1768787854873.8403,1325.2747252747251,,0,-1,1768787854.8738403
1768787854881.6528,1319.4139194139193,,0,-1,1768787854.8816528
1768787854889.465,1306.227106227106,,0,-1,1768787854.889465
1768787854897.2778,1293.7728937728937,,0,-1,1768787854.8972778
1768787854905.0903,1288.6446886446886,,0,-1,1768787854.9050903
1768787854912.9028,1285.7142857142856,,0,-1,1768787854.9129028
1768787854920.715,1290.8424908424909,,0,-1,1768787854.920715
1768787854928.5278,1296.7032967032967,,0,-1,1768787854.9285278
1768787854936.3403,1299.6336996336995,,0,-1,1768787854.9363403
1768787854944.1528,1306.9597069597069,,0,-1,1768787854.9441528
1768787854951.965,1315.7509157509155,,0,-1,1768787854.951965
1768787854959.7778,1318.6813186813183,,0,-1,1768787854.9597778
1768787854967.5903,1322.3443223443223,,0,-1,1768787854.9675903
1768787854975.4028,1326.739926739927,,0,-1,1768787854.9754028
1768787854983.215,1328.937728937729,,0,-1,1768787854.983215
1768787854991.0278,1325.2747252747251,,0,-1,1768787854.9910278
1768787854998.8403,1325.2747252747251,,0,-1,1768787854.9988403
1768787855006.6528,1326.739926739927,,0,-1,1768787855.0066528
1768787855014.465,1323.076923076923,,0,-1,1768787855.014465
1768787855022.2778,1320.8791208791208,,0,-1,1768787855.0222778
1768787855030.0903,1320.14652014652,,0,-1,1768787855.0300903
1768787855037.9028,1317.9487179487178,,0,-1,1768787855.0379028
1768787855045.715,1311.3553113553112,,0,-1,1768787855.045715
1768787855053.5278,1308.4249084249084,,0,-1,1768787855.0535278
1768787855061.3403,1309.89010989011,,0,-1,1768787855.0613403
1768787855069.1528,1313.5531135531137,,0,-1,1768787855.0691528
1768787855076.965,1317.9487179487178,,0,-1,1768787855.076965
1768787855084.7778,1323.076923076923,,0,-1,1768787855.0847778
1768787855092.5903,1327.4725274725274,,0,-1,1768787855.0925903
1768787855100.4028,1334.065934065934,,0,-1,1768787855.1004028
1768787855108.215,1342.124542124542,,0,-1,1768787855.108215
1768787855116.0278,1347.985347985348,,0,-1,1768787855.1160278
1768787855123.8403,1357.5091575091574,,0,-1,1768787855.1238403
1768787855131.6528,1367.032967032967,,0,-1,1768787855.1316528
1768787855139.465,1377.2893772893772,,0,-1,1768787855.139465
1768787855147.2778,1385.3479853479853,,0,-1,1768787855.1472778
1768787855155.0903,1393.4065934065934,,0,-1,1768787855.1550903
1768787855162.9028,1400.0,,0,-1,1768787855.1629028
1768787855170.715,1409.5238095238094,,0,-1,1768787855.170715
1768787855178.5278,1416.117216117216,,0,-1,1768787855.1785278
1768787855186.3403,1415.3846153846152,,0,-1,1768787855.1863403
1768787855194.1528,1414.6520146520145,,0,-1,1768787855.1941528
1768787855201.965,1416.8498168498168,,0,-1,1768787855.201965
1768787855209.7778,1421.245421245421,,0,-1,1768787855.2097778
1768787855217.5903,1422.7106227106226,,0,-1,1768787855.2175903
1768787855225.4028,1422.7106227106226,,0,-1,1768787855.2254028
1768787855233.215,1419.047619047619,,0,-1,1768787855.233215
1768787855241.0278,1419.047619047619,,0,-1,1768787855.2410278
