Shimmer_6815_Timestamp_Unix_CAL,Shimmer_6815_PPG_A13_CAL,Unnamed: 2,inhale,inhale_id,epoch_sec
1768777132150.0854,26.37362637362637,,0,-1,1768777132.1500854
1768777132157.898,123.07692307692308,,0,-1,1768777132.157898
1768777132165.7104,245.4212454212454,,0,-1,1768777132.1657104
1768777132173.523,380.2197802197802,,0,-1,1768777132.173523
1768777132181.3354,516.4835164835165,,0,-1,1768777132.1813354
1768777132189.148,643.2234432234432,,0,-1,1768777132.189148
1768777132196.9604,761.1721611721612,,0,-1,1768777132.1969604
1768777132204.773,867.3992673992674,,0,-1,1768777132.204773
1768777132212.5854,958.241758241758,,0,-1,1768777132.2125854
1768777132220.398,1035.8974358974358,,0,-1,1768777132.220398
1768777132228.2104,1098.9010989010987,,0,-1,1768777132.2282104
1768777132236.023,1147.2527472527472,,0,-1,1768777132.236023
1768777132243.8354,1183.8827838827838,,0,-1,1768777132.2438354
1768777132251.648,1210.2564102564102,,0,-1,1768777132.251648
1768777132259.4604,1226.3736263736264,,0,-1,1768777132.2594604
1768777132267.273,1238.095238095238,,0,-1,1768777132.267273
1768777132275.0854,1247.6190476190477,,0,-1,1768777132.2750854
1768777132282.898,1254.212454212454,,0,-1,1768777132.282898
1768777132290.7104,1254.9450549450548,,0,-1,1768777132.2907104
1768777132298.523,1256.4102564102564,,0,-1,1768777132.298523
1768777132306.3354,1252.014652014652,,0,-1,1768777132.3063354
1768777132314.148,1249.8168498168498,,0,-1,1768777132.314148
1768777132321.9604,1246.8864468864467,,0,-1,1768777132.3219604
1768777132329.773,1243.956043956044,,0,-1,1768777132.329773
1768777132337.5854,1237.362637362637,,0,-1,1768777132.3375854
1768777132345.398,1230.03663003663,,0,-1,1768777132.345398
1768777132353.2104,1219.047619047619,,0,-1,1768777132.3532104
1768777132361.023,1202.9304029304028,,0,-1,1768777132.361023
1768777132368.8354,1184.6153846153843,,0,-1,1768777132.3688354
1768777132376.648,1168.4981684981683,,0,-1,1768777132.376648
1768777132384.4604,1157.5091575091574,,0,-1,1768777132.3844604
1768777132392.273,1148.7179487179487,,0,-1,1768777132.392273
1768777132400.0854,1142.857142857143,,0,-1,1768777132.4000854
1768777132407.898,1139.92673992674,,0,-1,1768777132.407898
1768777132415.7104,1139.194139194139,,0,-1,1768777132.4157104
1768777132423.523,1139.194139194139,,0,-1,1768777132.423523
1768777132431.3354,1137.7289377289376,,0,-1,1768777132.4313354
1768777132439.148,1136.2637362637363,,0,-1,1768777132.439148
1768777132446.9604,1136.2637362637363,,0,-1,1768777132.4469604
1768777132454.773,1138.4615384615383,,0,-1,1768777132.454773
1768777132462.5854,1143.5897435897434,,0,-1,1768777132.4625854
1768777132470.398,1149.4505494505493,,0,-1,1768777132.470398
1768777132478.2104,1153.8461538461538,,0,-1,1768777132.4782104
1768777132486.023,1156.043956043956,,0,-1,1768777132.486023
1768777132493.8354,1156.7765567765566,,0,-1,1768777132.4938354
1768777132501.648,1157.5091575091574,,0,-1,1768777132.501648
1768777132509.4604,1156.7765567765566,,0,-1,1768777132.5094604
1768777132517.273,1155.311355311355,,0,-1,1768777132.517273
1768777132525.0854,1154.5787545787546,,0,-1,1768777132.5250854
1768777132532.898,1150.18315018315,,0,-1,1768777132.532898
1768777132540.7104,1144.3223443223442,,0,-1,1768777132.5407104
1768777132548.523,1138.4615384615383,,0,-1,1768777132.548523
1768777132556.3354,1131.135531135531,,0,-1,1768777132.5563354
1768777132564.148,1119.4139194139193,,0,-1,1768777132.564148
1768777132571.9604,1110.6227106227109,,0,-1,1768777132.5719604
1768777132579.773,1107.6923076923076,,0,-1,1768777132.579773
1768777132587.5854,1105.4945054945051,,0,-1,1768777132.5875854
1768777132595.398,1104.029304029304,,0,-1,1768777132.595398
1768777132603.2104,1101.8315018315018,,0,-1,1768777132.6032104
1768777132611.023,1100.3663003663005,,0,-1,1768777132.611023
1768777132618.8354,1100.3663003663005,,0,-1,1768777132.6188354
1768777132626.648,1102.5641025641023,,0,-1,1768777132.626648
1768777132634.4604,1110.6227106227109,,0,-1,1768777132.6344604
1768777132642.273,1123.076923076923,,0,-1,1768777132.642273
1768777132650.0854,1131.135531135531,,0,-1,1768777132.6500854
1768777132657.898,1144.3223443223442,,0,-1,1768777132.657898
1768777132665.7104,1152.3809523809523,,0,-1,1768777132.6657104
1768777132673.523,1164.8351648351647,,0,-1,1768777132.673523
1768777132681.3354,1181.6849816849815,,0,-1,1768777132.6813354
1768777132689.148,1205.8608058608058,,0,-1,1768777132.689148
1768777132696.9604,1234.4322344322345,,0,-1,1768777132.6969604
1768777132704.773,1268.131868131868,,0,-1,1768777132.704773
1768777132712.5854,1306.9597069597069,,0,-1,1768777132.7125854
1768777132720.398,1348.7179487179487,,0,-1,1768777132.720398
1768777132728.2104,1387.5457875457876,,0,-1,1768777132.7282104
1768777132736.023,1425.6410256410256,,0,-1,1768777132.736023
1768777132743.8354,1465.201465201465,,0,-1,1768777132.7438354
1768777132751.648,1498.168498168498,,0,-1,1768777132.751648
1768777132759.4604,1530.4029304029302,,0,-1,1768777132.7594604
1768777132767.273,1561.9047619047617,,0,-1,1768777132.767273
1768777132775.0854,1589.0109890109889,,0,-1,1768777132.7750854
1768777132782.898,1613.186813186813,,0,-1,1768777132.782898
1768777132790.7104,1633.6996336996335,,0,-1,1768777132.7907104
1768777132798.523,1643.2234432234432,,0,-1,1768777132.798523
1768777132806.3354,1643.956043956044,,0,-1,1768777132.8063354
1768777132814.148,1643.956043956044,,0,-1,1768777132.814148
1768777132821.9604,1632.2344322344322,,0,-1,1768777132.8219604
1768777132829.773,1623.4432234432234,,0,-1,1768777132.829773
1768777132837.5854,1612.4542124542124,,0,-1,1768777132.8375854
1768777132845.398,1605.8608058608058,,0,-1,1768777132.845398
1768777132853.2104,1597.069597069597,,0,-1,1768777132.8532104
1768777132861.023,1587.545787545787,,0,-1,1768777132.861023
1768777132868.8354,1583.8827838827838,,0,-1,1768777132.8688354
1768777132876.648,1579.4871794871794,,0,-1,1768777132.876648
1768777132884.4604,1578.7545787545787,,0,-1,1768777132.8844604
1768777132892.273,1573.6263736263736,,0,-1,1768777132.892273
1768777132900.0854,1571.428571428571,,0,-1,1768777132.9000854
1768777132907.898,1563.3699633699632,,0,-1,1768777132.907898
1768777132915.7104,1545.7875457875457,,0,-1,1768777132.9157104
1768777132923.523,1534.065934065934,,0,-1,1768777132.923523
1768777132931.3354,1520.8791208791208,,0,-1,1768777132.9313354
1768777132939.148,1514.2857142857142,,0,-1,1768777132.939148
1768777132946.9604,1503.2967032967033,,0,-1,1768777132.9469604
1768777132954.773,1496.7032967032967,,0,-1,1768777132.954773
1768777132962.5854,1486.4468864468863,,0,-1,1768777132.9625854
1768777132970.398,1477.6556776556777,,0,-1,1768777132.970398
1768777132978.2104,1464.4688644688645,,0,-1,1768777132.9782104
1768777132986.023,1455.6776556776556,,0,-1,1768777132.986023
1768777132993.8354,1446.153846153846,,0,-1,1768777132.9938354
1768777133001.648,1440.29304029304,,0,-1,1768777133.001648
1768777133009.4604,1436.6300366300366,,0,-1,1768777133.0094604
1768777133017.273,1429.3040293040292,,0,-1,1768777133.017273
1768777133025.0854,1429.3040293040292,,0,-1,1768777133.0250854
1768777133032.898,1433.6996336996335,,0,-1,1768777133.032898
1768777133040.7104,1437.362637362637,,0,-1,1768777133.0407104
1768777133048.523,1446.153846153846,,0,-1,1768777133.048523
1768777133056.3354,1449.084249084249,,0,-1,1768777133.0563354
1768777133064.148,1445.4212454212454,,0,-1,1768777133.064148
1768777133071.9604,1441.7582417582416,,0,-1,1768777133.0719604
1768777133079.773,1431.5018315018317,,0,-1,1768777133.079773
1768777133087.5854,1421.9780219780218,,0,-1,1768777133.0875854
1768777133095.398,1413.1868131868132,,0,-1,1768777133.095398
1768777133103.2104,1405.128205128205,,0,-1,1768777133.1032104
1768777133111.023,1394.8717948717947,,0,-1,1768777133.111023
1768777133118.8354,1384.6153846153843,,0,-1,1768777133.1188354
1768777133126.648,1375.8241758241757,,0,-1,1768777133.126648
1768777133134.4604,1359.7069597069597,,0,-1,1768777133.1344604
1768777133142.273,1337.7289377289376,,0,-1,1768777133.142273
1768777133150.0854,1320.8791208791208,,0,-1,1768777133.1500854
1768777133157.898,1306.9597069597069,,0,-1,1768777133.157898
1768777133165.7104,1295.970695970696,,0,-1,1768777133.1657104
1768777133173.523,1289.3772893772891,,0,-1,1768777133.173523
1768777133181.3354,1283.5164835164835,,0,-1,1768777133.1813354
1768777133189.148,1281.3186813186812,,0,-1,1768777133.189148
1768777133196.9604,1279.120879120879,,0,-1,1768777133.1969604
1768777133204.773,1279.8534798534797,,0,-1,1768777133.204773
1768777133212.5854,1282.7838827838827,,0,-1,1768777133.2125854
1768777133220.398,1284.9816849816848,,0,-1,1768777133.220398
1768777133228.2104,1284.2490842490845,,0,-1,1768777133.2282104
1768777133236.023,1281.3186813186812,,0,-1,1768777133.236023
1768777133243.8354,1275.4578754578754,,0,-1,1768777133.2438354
1768777133251.648,1265.2014652014652,,0,-1,1768777133.251648
1768777133259.4604,1254.9450549450548,,0,-1,1768777133.2594604
1768777133267.273,1245.4212454212454,,0,-1,1768777133.267273
1768777133275.0854,1242.4908424908424,,0,-1,1768777133.2750854
1768777133282.898,1241.0256410256409,,0,-1,1768777133.282898
1768777133290.7104,1241.7582417582416,,0,-1,1768777133.2907104
1768777133298.523,1243.956043956044,,0,-1,1768777133.298523
1768777133306.3354,1244.688644688645,,0,-1,1768777133.3063354
1768777133314.148,1244.688644688645,,0,-1,1768777133.314148
1768777133321.9604,1244.688644688645,,0,-1,1768777133.3219604
1768777133329.773,1246.153846153846,,0,-1,1768777133.329773
1768777133337.5854,1245.4212454212454,,0,-1,1768777133.3375854
1768777133345.398,1246.8864468864467,,0,-1,1768777133.345398
1768777133353.2104,1246.8864468864467,,0,-1,1768777133.3532104
1768777133361.023,1244.688644688645,,0,-1,1768777133.361023
1768777133368.8354,1240.29304029304,,0,-1,1768777133.3688354
1768777133376.648,1230.7692307692307,,0,-1,1768777133.376648
1768777133384.4604,1222.7106227106226,,0,-1,1768777133.3844604
1768777133392.273,1213.1868131868132,,0,-1,1768777133.392273
1768777133400.0854,1201.4652014652013,,0,-1,1768777133.4000854
1768777133407.898,1189.7435897435896,,0,-1,1768777133.407898
1768777133415.7104,1178.7545787545787,,0,-1,1768777133.4157104
1768777133423.523,1171.428571428571,,0,-1,1768777133.423523
1768777133431.3354,1168.4981684981683,,0,-1,1768777133.4313354
1768777133439.148,1169.230769230769,,0,-1,1768777133.439148
1768777133446.9604,1171.428571428571,,0,-1,1768777133.4469604
1768777133454.773,1176.5567765567764,,0,-1,1768777133.454773
1768777133462.5854,1178.7545787545787,,0,-1,1768777133.4625854
1768777133470.398,1178.7545787545787,,0,-1,1768777133.470398
1768777133478.2104,1175.8241758241757,,0,-1,1768777133.4782104
1768777133486.023,1172.8937728937728,,0,-1,1768777133.486023
1768777133493.8354,1169.9633699633698,,0,-1,1768777133.4938354
1768777133501.648,1166.3003663003662,,0,-1,1768777133.501648
1768777133509.4604,1159.7069597069597,,0,-1,1768777133.5094604
1768777133517.273,1154.5787545787546,,0,-1,1768777133.517273
1768777133525.0854,1147.2527472527472,,0,-1,1768777133.5250854
1768777133532.898,1142.124542124542,,0,-1,1768777133.532898
1768777133540.7104,1137.7289377289376,,0,-1,1768777133.5407104
1768777133548.523,1136.9963369963368,,0,-1,1768777133.548523
1768777133556.3354,1136.9963369963368,,0,-1,1768777133.5563354
1768777133564.148,1140.6593406593406,,0,-1,1768777133.564148
1768777133571.9604,1144.3223443223442,,0,-1,1768777133.5719604
1768777133579.773,1147.985347985348,,0,-1,1768777133.579773
1768777133587.5854,1151.6483516483515,,0,-1,1768777133.5875854
1768777133595.398,1158.974358974359,,0,-1,1768777133.595398
1768777133603.2104,1171.428571428571,,0,-1,1768777133.6032104
1768777133611.023,1188.278388278388,,0,-1,1768777133.611023
1768777133618.8354,1209.5238095238094,,0,-1,1768777133.6188354
1768777133626.648,1232.967032967033,,0,-1,1768777133.626648
1768777133634.4604,1257.875457875458,,0,-1,1768777133.6344604
1768777133642.273,1286.4468864468863,,0,-1,1768777133.642273
1768777133650.0854,1318.6813186813183,,0,-1,1768777133.6500854
1768777133657.898,1352.3809523809523,,0,-1,1768777133.657898
1768777133665.7104,1386.8131868131868,,0,-1,1768777133.6657104
1768777133673.523,1420.5128205128203,,0,-1,1768777133.673523
1768777133681.3354,1451.2820512820513,,0,-1,1768777133.6813354
1768777133689.148,1473.260073260073,,0,-1,1768777133.689148
1768777133696.9604,1491.5750915750914,,0,-1,1768777133.6969604
1768777133704.773,1509.1575091575091,,0,-1,1768777133.704773
1768777133712.5854,1522.3443223443223,,0,-1,1768777133.7125854
1768777133720.398,1533.3333333333333,,0,-1,1768777133.720398
1768777133728.2104,1542.124542124542,,0,-1,1768777133.7282104
1768777133736.023,1546.5201465201465,,0,-1,1768777133.736023
1768777133743.8354,1547.985347985348,,0,-1,1768777133.7438354
1768777133751.648,1550.9157509157508,,0,-1,1768777133.751648
1768777133759.4604,1555.311355311355,,0,-1,1768777133.7594604
1768777133767.273,1556.043956043956,,0,-1,1768777133.767273
1768777133775.0854,1557.5091575091574,,0,-1,1768777133.7750854
1768777133782.898,1560.4395604395604,,0,-1,1768777133.782898
1768777133790.7104,1558.974358974359,,0,-1,1768777133.7907104
1768777133798.523,1553.8461538461538,,0,-1,1768777133.798523
1768777133806.3354,1550.9157509157508,,0,-1,1768777133.8063354
1768777133814.148,1548.7179487179485,,0,-1,1768777133.814148
1768777133821.9604,1541.3919413919414,,0,-1,1768777133.8219604
1768777133829.773,1534.7985347985348,,0,-1,1768777133.829773
1768777133837.5854,1526.739926739927,,0,-1,1768777133.8375854
1768777133845.398,1521.6117216117216,,0,-1,1768777133.845398
1768777133853.2104,1509.89010989011,,0,-1,1768777133.8532104
1768777133861.023,1504.7619047619046,,0,-1,1768777133.861023
1768777133868.8354,1498.168498168498,,0,-1,1768777133.8688354
1768777133876.648,1490.10989010989,,0,-1,1768777133.876648
1768777133884.4604,1481.3186813186812,,0,-1,1768777133.8844604
1768777133892.273,1475.4578754578754,,0,-1,1768777133.892273
1768777133900.0854,1468.8644688644688,,0,-1,1768777133.9000854
1768777133907.898,1464.4688644688645,,0,-1,1768777133.907898
1768777133915.7104,1457.142857142857,,0,-1,1768777133.9157104
1768777133923.523,1449.8168498168498,,0,-1,1768777133.923523
1768777133931.3354,1441.7582417582416,,0,-1,1768777133.9313354
1768777133939.148,1434.4322344322345,,0,-1,1768777133.939148
1768777133946.9604,1424.175824175824,,0,-1,1768777133.9469604
1768777133954.773,1413.1868131868132,,0,-1,1768777133.954773
1768777133962.5854,1408.058608058608,,0,-1,1768777133.9625854
1768777133970.398,1402.9304029304028,,0,-1,1768777133.970398
1768777133978.2104,1399.2673992673992,,0,-1,1768777133.9782104
1768777133986.023,1395.6043956043954,,0,-1,1768777133.986023
1768777133993.8354,1393.4065934065934,,0,-1,1768777133.9938354
1768777134001.648,1386.8131868131868,,0,-1,1768777134.001648
1768777134009.4604,1377.2893772893772,,0,-1,1768777134.0094604
1768777134017.273,1372.161172161172,,0,-1,1768777134.017273
1768777134025.0854,1362.6373626373625,,0,-1,1768777134.0250854
1768777134032.898,1358.241758241758,,0,-1,1768777134.032898
1768777134040.7104,1349.4505494505493,,0,-1,1768777134.0407104
1768777134048.523,1345.054945054945,,0,-1,1768777134.048523
1768777134056.3354,1337.7289377289376,,0,-1,1768777134.0563354
1768777134064.148,1328.2051282051282,,0,-1,1768777134.064148
1768777134071.9604,1325.2747252747251,,0,-1,1768777134.0719604
1768777134079.773,1317.9487179487178,,0,-1,1768777134.079773
1768777134087.5854,1315.018315018315,,0,-1,1768777134.0875854
1768777134095.398,1307.6923076923076,,0,-1,1768777134.095398
1768777134103.2104,1301.8315018315018,,0,-1,1768777134.1032104
1768777134111.023,1290.8424908424909,,0,-1,1768777134.111023
1768777134118.8354,1280.5860805860805,,0,-1,1768777134.1188354
1768777134126.648,1272.5274725274724,,0,-1,1768777134.126648
1768777134134.4604,1267.3992673992673,,0,-1,1768777134.1344604
1768777134142.273,1262.2710622710622,,0,-1,1768777134.142273
1768777134150.0854,1265.2014652014652,,0,-1,1768777134.1500854
1768777134157.898,1263.7362637362637,,0,-1,1768777134.157898
1768777134165.7104,1259.3406593406592,,0,-1,1768777134.1657104
1768777134173.523,1255.6776556776556,,0,-1,1768777134.173523
1768777134181.3354,1251.2820512820513,,0,-1,1768777134.1813354
1768777134189.148,1247.6190476190477,,0,-1,1768777134.189148
1768777134196.9604,1244.688644688645,,0,-1,1768777134.1969604
1768777134204.773,1242.4908424908424,,0,-1,1768777134.204773
1768777134212.5854,1241.0256410256409,,0,-1,1768777134.2125854
1768777134220.398,1235.8974358974358,,0,-1,1768777134.220398
1768777134228.2104,1224.175824175824,,0,-1,1768777134.2282104
1768777134236.023,1213.9194139194135,,0,-1,1768777134.236023
1768777134243.8354,1202.9304029304028,,0,-1,1768777134.2438354
1768777134251.648,1189.7435897435896,,0,-1,1768777134.251648
1768777134259.4604,1178.7545787545787,,1,1,1768777134.2594604
1768777134267.273,1175.0915750915751,,1,1,1768777134.267273
1768777134275.0854,1174.3589743589744,,1,1,1768777134.2750854
1768777134282.898,1177.2893772893772,,1,1,1768777134.282898
1768777134290.7104,1180.2197802197802,,1,1,1768777134.2907104
1768777134298.523,1183.8827838827838,,1,1,1768777134.298523
1768777134306.3354,1186.080586080586,,1,1,1768777134.3063354
1768777134314.148,1185.3479853479853,,1,1,1768777134.314148
1768777134321.9604,1182.4175824175825,,1,1,1768777134.3219604
1768777134329.773,1183.150183150183,,1,1,1768777134.329773
1768777134337.5854,1188.278388278388,,1,1,1768777134.3375854
1768777134345.398,1194.1391941391942,,1,1,1768777134.345398
1768777134353.2104,1198.5347985347985,,1,1,1768777134.3532104
1768777134361.023,1200.7326007326008,,1,1,1768777134.361023
1768777134368.8354,1200.7326007326008,,1,1,1768777134.3688354
1768777134376.648,1200.7326007326008,,1,1,1768777134.376648
1768777134384.4604,1197.8021978021975,,1,1,1768777134.3844604
1768777134392.273,1189.0109890109889,,1,1,1768777134.392273
1768777134400.0854,1178.7545787545787,,1,1,1768777134.4000854
1768777134407.898,1172.8937728937728,,1,1,1768777134.407898
1768777134415.7104,1165.5677655677655,,1,1,1768777134.4157104
1768777134423.523,1160.4395604395604,,1,1,1768777134.423523
1768777134431.3354,1154.5787545787546,,1,1,1768777134.4313354
1768777134439.148,1150.18315018315,,1,1,1768777134.439148
1768777134446.9604,1147.985347985348,,1,1,1768777134.4469604
1768777134454.773,1144.3223443223442,,1,1,1768777134.454773
1768777134462.5854,1136.9963369963368,,1,1,1768777134.4625854
1768777134470.398,1130.4029304029302,,1,1,1768777134.470398
1768777134478.2104,1123.8095238095236,,1,1,1768777134.4782104
1768777134486.023,1118.6813186813183,,1,1,1768777134.486023
1768777134493.8354,1112.8205128205127,,1,1,1768777134.4938354
1768777134501.648,1107.6923076923076,,1,1,1768777134.501648
1768777134509.4604,1104.029304029304,,1,1,1768777134.5094604
1768777134517.273,1098.168498168498,,1,1,1768777134.517273
1768777134525.0854,1094.5054945054944,,1,1,1768777134.5250854
1768777134532.898,1093.7728937728937,,1,1,1768777134.532898
1768777134540.7104,1101.098901098901,,1,1,1768777134.5407104
1768777134548.523,1109.1575091575091,,1,1,1768777134.548523
1768777134556.3354,1113.5531135531137,,1,1,1768777134.5563354
1768777134564.148,1117.9487179487178,,1,1,1768777134.564148
1768777134571.9604,1120.8791208791208,,1,1,1768777134.5719604
1768777134579.773,1119.4139194139193,,1,1,1768777134.579773
1768777134587.5854,1118.6813186813183,,1,1,1768777134.5875854
1768777134595.398,1117.9487179487178,,1,1,1768777134.595398
1768777134603.2104,1119.4139194139193,,1,1,1768777134.6032104
1768777134611.023,1124.5421245421244,,1,1,1768777134.611023
1768777134618.8354,1126.007326007326,,1,1,1768777134.6188354
1768777134626.648,1135.5311355311355,,1,1,1768777134.626648
1768777134634.4604,1151.6483516483515,,1,1,1768777134.6344604
1768777134642.273,1171.428571428571,,1,1,1768777134.642273
1768777134650.0854,1195.6043956043954,,1,1,1768777134.6500854
1768777134657.898,1225.6410256410256,,1,1,1768777134.657898
1768777134665.7104,1252.7472527472526,,1,1,1768777134.6657104
1768777134673.523,1276.923076923077,,1,1,1768777134.673523
1768777134681.3354,1305.4945054945051,,1,1,1768777134.6813354
1768777134689.148,1331.8681318681315,,1,1,1768777134.689148
1768777134696.9604,1350.9157509157508,,1,1,1768777134.6969604
1768777134704.773,1369.230769230769,,1,1,1768777134.704773
1768777134712.5854,1387.5457875457876,,1,1,1768777134.7125854
1768777134720.398,1401.4652014652013,,1,1,1768777134.720398
1768777134728.2104,1408.7912087912086,,1,1,1768777134.7282104
1768777134736.023,1419.047619047619,,1,1,1768777134.736023
1768777134743.8354,1427.8388278388277,,1,1,1768777134.7438354
1768777134751.648,1432.2344322344322,,1,1,1768777134.751648
1768777134759.4604,1438.8278388278388,,1,1,1768777134.7594604
1768777134767.273,1438.095238095238,,1,1,1768777134.767273
1768777134775.0854,1440.29304029304,,1,1,1768777134.7750854
1768777134782.898,1442.4908424908424,,1,1,1768777134.782898
1768777134790.7104,1439.5604395604394,,1,1,1768777134.7907104
1768777134798.523,1439.5604395604394,,1,1,1768777134.798523
1768777134806.3354,1432.2344322344322,,1,1,1768777134.8063354
1768777134814.148,1427.106227106227,,1,1,1768777134.814148
1768777134821.9604,1416.8498168498168,,1,1,1768777134.8219604
1768777134829.773,1409.5238095238094,,1,1,1768777134.829773
1768777134837.5854,1401.4652014652013,,1,1,1768777134.8375854
1768777134845.398,1397.8021978021975,,1,1,1768777134.845398
1768777134853.2104,1388.278388278388,,1,1,1768777134.8532104
1768777134861.023,1383.150183150183,,1,1,1768777134.861023
1768777134868.8354,1373.6263736263736,,1,1,1768777134.8688354
1768777134876.648,1367.7655677655678,,1,1,1768777134.876648
1768777134884.4604,1356.043956043956,,1,1,1768777134.8844604
1768777134892.273,1348.7179487179487,,1,1,1768777134.892273
1768777134900.0854,1340.6593406593406,,1,1,1768777134.9000854
1768777134907.898,1332.6007326007325,,1,1,1768777134.907898
1768777134915.7104,1331.135531135531,,1,1,1768777134.9157104
1768777134923.523,1323.076923076923,,1,1,1768777134.923523
1768777134931.3354,1323.076923076923,,1,1,1768777134.9313354
1768777134939.148,1320.8791208791208,,1,1,1768777134.939148
1768777134946.9604,1323.8095238095236,,1,1,1768777134.9469604
1768777134954.773,1328.2051282051282,,1,1,1768777134.954773
1768777134962.5854,1331.135531135531,,1,1,1768777134.9625854
1768777134970.398,1338.4615384615383,,1,1,1768777134.970398
1768777134978.2104,1341.3919413919414,,1,1,1768777134.9782104
1768777134986.023,1338.4615384615383,,1,1,1768777134.986023
1768777134993.8354,1336.9963369963368,,1,1,1768777134.9938354
1768777135001.648,1327.4725274725274,,1,1,1768777135.001648
1768777135009.4604,1319.4139194139193,,1,1,1768777135.0094604
1768777135017.273,1318.6813186813183,,1,1,1768777135.017273
1768777135025.0854,1317.216117216117,,1,1,1768777135.0250854
1768777135032.898,1317.216117216117,,1,1,1768777135.032898
1768777135040.7104,1317.216117216117,,1,1,1768777135.0407104
1768777135048.523,1311.3553113553112,,1,1,1768777135.048523
1768777135056.3354,1304.7619047619046,,1,1,1768777135.0563354
1768777135064.148,1296.7032967032967,,1,1,1768777135.064148
1768777135071.9604,1293.040293040293,,1,1,1768777135.0719604
1768777135079.773,1286.4468864468863,,1,1,1768777135.079773
1768777135087.5854,1284.2490842490845,,1,1,1768777135.0875854
1768777135095.398,1283.5164835164835,,1,1,1768777135.095398
1768777135103.2104,1280.5860805860805,,1,1,1768777135.1032104
1768777135111.023,1284.2490842490845,,1,1,1768777135.111023
1768777135118.8354,1283.5164835164835,,1,1,1768777135.1188354
1768777135126.648,1279.120879120879,,1,1,1768777135.126648
1768777135134.4604,1276.923076923077,,1,1,1768777135.1344604
1768777135142.273,1269.5970695970695,,1,1,1768777135.142273
1768777135150.0854,1257.142857142857,,1,1,1768777135.1500854
1768777135157.898,1252.014652014652,,1,1,1768777135.157898
1768777135165.7104,1243.2234432234432,,1,1,1768777135.1657104
1768777135173.523,1233.6996336996335,,1,1,1768777135.173523
1768777135181.3354,1228.5714285714284,,1,1,1768777135.1813354
1768777135189.148,1219.047619047619,,1,1,1768777135.189148
1768777135196.9604,1209.5238095238094,,1,1,1768777135.1969604
1768777135204.773,1202.197802197802,,1,1,1768777135.204773
1768777135212.5854,1200.0,,1,1,1768777135.2125854
1768777135220.398,1198.5347985347985,,1,1,1768777135.220398
1768777135228.2104,1200.7326007326008,,1,1,1768777135.2282104
1768777135236.023,1202.197802197802,,1,1,1768777135.236023
1768777135243.8354,1204.3956043956043,,1,1,1768777135.2438354
1768777135251.648,1200.7326007326008,,1,1,1768777135.251648
1768777135259.4604,1200.0,,1,1,1768777135.2594604
1768777135267.273,1200.7326007326008,,1,1,1768777135.267273
1768777135275.0854,1199.2673992673992,,1,1,1768777135.2750854
1768777135282.898,1191.941391941392,,1,1,1768777135.282898
1768777135290.7104,1183.150183150183,,1,1,1768777135.2907104
1768777135298.523,1179.4871794871794,,1,1,1768777135.298523
1768777135306.3354,1180.952380952381,,1,1,1768777135.3063354
1768777135314.148,1183.150183150183,,1,1,1768777135.314148
1768777135321.9604,1185.3479853479853,,1,1,1768777135.3219604
1768777135329.773,1190.4761904761904,,1,1,1768777135.329773
1768777135337.5854,1192.6739926739926,,1,1,1768777135.3375854
1768777135345.398,1193.4065934065934,,1,1,1768777135.345398
1768777135353.2104,1187.5457875457876,,1,1,1768777135.3532104
1768777135361.023,1183.8827838827838,,1,1,1768777135.361023
1768777135368.8354,1180.952380952381,,1,1,1768777135.3688354
1768777135376.648,1180.952380952381,,1,1,1768777135.376648
1768777135384.4604,1180.2197802197802,,1,1,1768777135.3844604
1768777135392.273,1180.952380952381,,1,1,1768777135.392273
1768777135400.0854,1180.2197802197802,,1,1,1768777135.4000854
1768777135407.898,1178.7545787545787,,1,1,1768777135.407898
1768777135415.7104,1172.161172161172,,1,1,1768777135.4157104
1768777135423.523,1164.8351648351647,,1,1,1768777135.423523
1768777135431.3354,1153.8461538461538,,1,1,1768777135.4313354
1768777135439.148,1141.3919413919414,,1,1,1768777135.439148
1768777135446.9604,1132.6007326007325,,1,1,1768777135.4469604
1768777135454.773,1128.2051282051282,,1,1,1768777135.454773
1768777135462.5854,1125.2747252747251,,1,1,1768777135.4625854
1768777135470.398,1124.5421245421244,,1,1,1768777135.470398
1768777135478.2104,1124.5421245421244,,1,1,1768777135.4782104
1768777135486.023,1130.4029304029302,,1,1,1768777135.486023
1768777135493.8354,1134.7985347985348,,1,1,1768777135.4938354
1768777135501.648,1140.6593406593406,,1,1,1768777135.501648
1768777135509.4604,1146.5201465201465,,1,1,1768777135.5094604
1768777135517.273,1150.18315018315,,1,1,1768777135.517273
1768777135525.0854,1152.3809523809523,,1,1,1768777135.5250854
1768777135532.898,1149.4505494505493,,1,1,1768777135.532898
1768777135540.7104,1145.054945054945,,1,1,1768777135.5407104
1768777135548.523,1138.4615384615383,,1,1,1768777135.548523
1768777135556.3354,1131.8681318681315,,1,1,1768777135.5563354
1768777135564.148,1126.739926739927,,1,1,1768777135.564148
1768777135571.9604,1131.8681318681315,,1,1,1768777135.5719604
1768777135579.773,1137.7289377289376,,1,1,1768777135.579773
1768777135587.5854,1142.857142857143,,1,1,1768777135.5875854
1768777135595.398,1152.3809523809523,,1,1,1768777135.595398
1768777135603.2104,1164.8351648351647,,1,1,1768777135.6032104
1768777135611.023,1179.4871794871794,,1,1,1768777135.611023
1768777135618.8354,1199.2673992673992,,1,1,1768777135.6188354
1768777135626.648,1213.9194139194135,,1,1,1768777135.626648
1768777135634.4604,1234.4322344322345,,1,1,1768777135.6344604
1768777135642.273,1247.6190476190477,,1,1,1768777135.642273
1768777135650.0854,1267.3992673992673,,1,1,1768777135.6500854
1768777135657.898,1279.8534798534797,,1,1,1768777135.657898
1768777135665.7104,1293.7728937728937,,1,1,1768777135.6657104
1768777135673.523,1302.5641025641023,,1,1,1768777135.673523
1768777135681.3354,1315.018315018315,,1,1,1768777135.6813354
1768777135689.148,1321.6117216117216,,1,1,1768777135.689148
1768777135696.9604,1323.8095238095236,,1,1,1768777135.6969604
1768777135704.773,1323.076923076923,,1,1,1768777135.704773
1768777135712.5854,1323.8095238095236,,1,1,1768777135.7125854
1768777135720.398,1323.8095238095236,,1,1,1768777135.720398
1768777135728.2104,1324.5421245421244,,1,1,1768777135.7282104
1768777135736.023,1326.739926739927,,1,1,1768777135.736023
1768777135743.8354,1331.8681318681315,,1,1,1768777135.7438354
1768777135751.648,1334.7985347985348,,1,1,1768777135.751648
1768777135759.4604,1334.065934065934,,1,1,1768777135.7594604
1768777135767.273,1336.263736263736,,1,1,1768777135.767273
1768777135775.0854,1339.194139194139,,1,1,1768777135.7750854
1768777135782.898,1337.7289377289376,,1,1,1768777135.782898
1768777135790.7104,1335.5311355311355,,1,1,1768777135.7907104
1768777135798.523,1334.065934065934,,1,1,1768777135.798523
1768777135806.3354,1324.5421245421244,,1,1,1768777135.8063354
1768777135814.148,1312.087912087912,,1,1,1768777135.814148
1768777135821.9604,1298.168498168498,,1,1,1768777135.8219604
1768777135829.773,1283.5164835164835,,1,1,1768777135.829773
1768777135837.5854,1279.8534798534797,,1,1,1768777135.8375854
1768777135845.398,1284.9816849816848,,1,1,1768777135.845398
1768777135853.2104,1290.8424908424909,,1,1,1768777135.8532104
1768777135861.023,1293.7728937728937,,1,1,1768777135.861023
1768777135868.8354,1296.7032967032967,,1,1,1768777135.8688354
1768777135876.648,1299.6336996336995,,1,1,1768777135.876648
1768777135884.4604,1299.6336996336995,,1,1,1768777135.8844604
1768777135892.273,1300.3663003663005,,1,1,1768777135.892273
1768777135900.0854,1297.4358974358977,,1,1,1768777135.9000854
1768777135907.898,1300.3663003663005,,1,1,1768777135.907898
1768777135915.7104,1298.9010989010987,,1,1,1768777135.9157104
1768777135923.523,1298.9010989010987,,1,1,1768777135.923523
1768777135931.3354,1293.7728937728937,,1,1,1768777135.9313354
1768777135939.148,1293.040293040293,,1,1,1768777135.939148
1768777135946.9604,1287.9120879120878,,1,1,1768777135.9469604
1768777135954.773,1290.10989010989,,1,1,1768777135.954773
1768777135962.5854,1287.179487179487,,1,1,1768777135.9625854
1768777135970.398,1288.6446886446886,,1,1,1768777135.970398
1768777135978.2104,1287.179487179487,,1,1,1768777135.9782104
1768777135986.023,1289.3772893772891,,1,1,1768777135.986023
1768777135993.8354,1284.9816849816848,,1,1,1768777135.9938354
1768777136001.648,1281.3186813186812,,1,1,1768777136.001648
1768777136009.4604,1272.5274725274724,,1,1,1768777136.0094604
1768777136017.273,1268.8644688644688,,1,1,1768777136.017273
1768777136025.0854,1260.805860805861,,1,1,1768777136.0250854
1768777136032.898,1257.142857142857,,1,1,1768777136.032898
1768777136040.7104,1255.6776556776556,,1,1,1768777136.0407104
1768777136048.523,1252.7472527472526,,1,1,1768777136.048523
1768777136056.3354,1254.212454212454,,1,1,1768777136.0563354
1768777136064.148,1251.2820512820513,,1,1,1768777136.064148
1768777136071.9604,1246.8864468864467,,1,1,1768777136.0719604
1768777136079.773,1243.2234432234432,,1,1,1768777136.079773
1768777136087.5854,1232.967032967033,,1,1,1768777136.0875854
1768777136095.398,1230.03663003663,,1,1,1768777136.095398
1768777136103.2104,1224.175824175824,,1,1,1768777136.1032104
1768777136111.023,1222.7106227106226,,1,1,1768777136.111023
1768777136118.8354,1221.9780219780218,,1,1,1768777136.1188354
1768777136126.648,1217.5824175824175,,1,1,1768777136.126648
1768777136134.4604,1220.5128205128203,,1,1,1768777136.1344604
1768777136142.273,1217.5824175824175,,1,1,1768777136.142273
1768777136150.0854,1221.245421245421,,1,1,1768777136.1500854
1768777136157.898,1221.9780219780218,,1,1,1768777136.157898
1768777136165.7104,1222.7106227106226,,1,1,1768777136.1657104
1768777136173.523,1224.9084249084249,,1,1,1768777136.173523
1768777136181.3354,1223.4432234432234,,1,1,1768777136.1813354
1768777136189.148,1227.106227106227,,1,1,1768777136.189148
1768777136196.9604,1226.3736263736264,,1,1,1768777136.1969604
1768777136204.773,1227.106227106227,,1,1,1768777136.204773
1768777136212.5854,1229.3040293040292,,1,1,1768777136.2125854
1768777136220.398,1224.9084249084249,,1,1,1768777136.220398
1768777136228.2104,1220.5128205128203,,1,1,1768777136.2282104
1768777136236.023,1212.4542124542124,,1,1,1768777136.236023
1768777136243.8354,1208.7912087912086,,1,1,1768777136.2438354
1768777136251.648,1208.7912087912086,,1,1,1768777136.251648
1768777136259.4604,1204.3956043956043,,1,1,1768777136.2594604
1768777136267.273,1203.6630036630036,,1,1,1768777136.267273
1768777136275.0854,1198.5347985347985,,1,1,1768777136.2750854
1768777136282.898,1195.6043956043954,,1,1,1768777136.282898
1768777136290.7104,1192.6739926739926,,1,1,1768777136.2907104
1768777136298.523,1194.1391941391942,,1,1,1768777136.298523
1768777136306.3354,1192.6739926739926,,1,1,1768777136.3063354
1768777136314.148,1192.6739926739926,,1,1,1768777136.314148
1768777136321.9604,1192.6739926739926,,1,1,1768777136.3219604
1768777136329.773,1195.6043956043954,,1,1,1768777136.329773
1768777136337.5854,1202.9304029304028,,1,1,1768777136.3375854
1768777136345.398,1208.058608058608,,1,1,1768777136.345398
1768777136353.2104,1207.3260073260074,,1,1,1768777136.3532104
1768777136361.023,1203.6630036630036,,1,1,1768777136.361023
1768777136368.8354,1200.7326007326008,,1,1,1768777136.3688354
1768777136376.648,1197.069597069597,,1,1,1768777136.376648
1768777136384.4604,1191.941391941392,,1,1,1768777136.3844604
1768777136392.273,1191.2087912087911,,1,1,1768777136.392273
1768777136400.0854,1190.4761904761904,,1,1,1768777136.4000854
1768777136407.898,1188.278388278388,,1,1,1768777136.407898
1768777136415.7104,1185.3479853479853,,1,1,1768777136.4157104
1768777136423.523,1188.278388278388,,1,1,1768777136.423523
1768777136431.3354,1186.8131868131868,,1,1,1768777136.4313354
1768777136439.148,1183.150183150183,,1,1,1768777136.439148
1768777136446.9604,1180.952380952381,,1,1,1768777136.4469604
1768777136454.773,1180.952380952381,,1,1,1768777136.454773
1768777136462.5854,1183.150183150183,,1,1,1768777136.4625854
1768777136470.398,1185.3479853479853,,1,1,1768777136.470398
1768777136478.2104,1189.0109890109889,,1,1,1768777136.4782104
1768777136486.023,1195.6043956043954,,1,1,1768777136.486023
1768777136493.8354,1205.128205128205,,1,1,1768777136.4938354
1768777136501.648,1216.8498168498168,,1,1,1768777136.501648
1768777136509.4604,1230.03663003663,,1,1,1768777136.5094604
1768777136517.273,1243.2234432234432,,1,1,1768777136.517273
1768777136525.0854,1257.142857142857,,1,1,1768777136.5250854
1768777136532.898,1272.5274725274724,,1,1,1768777136.532898
1768777136540.7104,1287.9120879120878,,1,1,1768777136.5407104
1768777136548.523,1296.7032967032967,,1,1,1768777136.548523
1768777136556.3354,1301.8315018315018,,1,1,1768777136.5563354
1768777136564.148,1302.5641025641023,,1,1,1768777136.564148
1768777136571.9604,1305.4945054945051,,1,1,1768777136.5719604
1768777136579.773,1312.087912087912,,1,1,1768777136.579773
1768777136587.5854,1320.8791208791208,,1,1,1768777136.5875854
1768777136595.398,1331.8681318681315,,1,1,1768777136.595398
1768777136603.2104,1344.3223443223442,,1,1,1768777136.6032104
1768777136611.023,1353.113553113553,,1,1,1768777136.611023
1768777136618.8354,1359.7069597069597,,1,1,1768777136.6188354
1768777136626.648,1364.8351648351647,,1,1,1768777136.626648
1768777136634.4604,1370.6959706959706,,1,1,1768777136.6344604
1768777136642.273,1371.428571428571,,1,1,1768777136.642273
1768777136650.0854,1367.7655677655678,,0,-1,1768777136.6500854
1768777136657.898,1361.1721611721612,,0,-1,1768777136.657898
1768777136665.7104,1355.311355311355,,0,-1,1768777136.6657104
1768777136673.523,1347.985347985348,,0,-1,1768777136.673523
1768777136681.3354,1343.5897435897434,,0,-1,1768777136.6813354
1768777136689.148,1339.194139194139,,0,-1,1768777136.689148
1768777136696.9604,1339.92673992674,,0,-1,1768777136.6969604
1768777136704.773,1338.4615384615383,,0,-1,1768777136.704773
1768777136712.5854,1336.9963369963368,,0,-1,1768777136.7125854
1768777136720.398,1336.263736263736,,0,-1,1768777136.720398
1768777136728.2104,1333.3333333333333,,0,-1,1768777136.7282104
1768777136736.023,1331.135531135531,,0,-1,1768777136.736023
1768777136743.8354,1326.739926739927,,0,-1,1768777136.7438354
1768777136751.648,1319.4139194139193,,0,-1,1768777136.751648
1768777136759.4604,1312.087912087912,,0,-1,1768777136.7594604
1768777136767.273,1306.9597069597069,,0,-1,1768777136.767273
1768777136775.0854,1305.4945054945051,,0,-1,1768777136.7750854
1768777136782.898,1304.0293040293038,,0,-1,1768777136.782898
1768777136790.7104,1305.4945054945051,,0,-1,1768777136.7907104
1768777136798.523,1304.0293040293038,,0,-1,1768777136.798523
1768777136806.3354,1306.227106227106,,0,-1,1768777136.8063354
1768777136814.148,1309.89010989011,,0,-1,1768777136.814148
1768777136821.9604,1316.4835164835165,,0,-1,1768777136.8219604
1768777136829.773,1321.6117216117216,,0,-1,1768777136.829773
1768777136837.5854,1327.4725274725274,,0,-1,1768777136.8375854
1768777136845.398,1333.3333333333333,,0,-1,1768777136.845398
1768777136853.2104,1340.6593406593406,,0,-1,1768777136.8532104
1768777136861.023,1341.3919413919414,,0,-1,1768777136.861023
1768777136868.8354,1339.194139194139,,0,-1,1768777136.8688354
1768777136876.648,1334.7985347985348,,0,-1,1768777136.876648
1768777136884.4604,1327.4725274725274,,0,-1,1768777136.8844604
1768777136892.273,1315.018315018315,,0,-1,1768777136.892273
1768777136900.0854,1300.3663003663005,,0,-1,1768777136.9000854
1768777136907.898,1294.5054945054944,,0,-1,1768777136.907898
1768777136915.7104,1293.7728937728937,,0,-1,1768777136.9157104
1768777136923.523,1295.970695970696,,0,-1,1768777136.923523
1768777136931.3354,1301.098901098901,,0,-1,1768777136.9313354
1768777136939.148,1307.6923076923076,,0,-1,1768777136.939148
1768777136946.9604,1312.8205128205127,,0,-1,1768777136.9469604
1768777136954.773,1316.4835164835165,,0,-1,1768777136.954773
1768777136962.5854,1314.2857142857142,,0,-1,1768777136.9625854
1768777136970.398,1308.4249084249084,,0,-1,1768777136.970398
1768777136978.2104,1301.8315018315018,,0,-1,1768777136.9782104
1768777136986.023,1292.3076923076922,,0,-1,1768777136.986023
1768777136993.8354,1279.8534798534797,,0,-1,1768777136.9938354
1768777137001.648,1274.7252747252746,,0,-1,1768777137.001648
1768777137009.4604,1268.131868131868,,0,-1,1768777137.0094604
1768777137017.273,1265.9340659340658,,0,-1,1768777137.017273
1768777137025.0854,1263.003663003663,,0,-1,1768777137.0250854
1768777137032.898,1264.4688644688645,,0,-1,1768777137.032898
1768777137040.7104,1262.2710622710622,,0,-1,1768777137.0407104
1768777137048.523,1263.003663003663,,0,-1,1768777137.048523
1768777137056.3354,1260.07326007326,,0,-1,1768777137.0563354
1768777137064.148,1255.6776556776556,,0,-1,1768777137.064148
1768777137071.9604,1254.212454212454,,0,-1,1768777137.0719604
1768777137079.773,1253.479853479853,,0,-1,1768777137.079773
1768777137087.5854,1248.3516483516482,,0,-1,1768777137.0875854
1768777137095.398,1251.2820512820513,,0,-1,1768777137.095398
1768777137103.2104,1250.5494505494505,,0,-1,1768777137.1032104
1768777137111.023,1252.7472527472526,,0,-1,1768777137.111023
1768777137118.8354,1243.956043956044,,0,-1,1768777137.1188354
1768777137126.648,1241.0256410256409,,0,-1,1768777137.126648
1768777137134.4604,1238.8278388278388,,0,-1,1768777137.1344604
1768777137142.273,1243.956043956044,,0,-1,1768777137.142273
1768777137150.0854,1244.688644688645,,0,-1,1768777137.1500854
1768777137157.898,1249.084249084249,,0,-1,1768777137.157898
1768777137165.7104,1247.6190476190477,,0,-1,1768777137.1657104
1768777137173.523,1250.5494505494505,,0,-1,1768777137.173523
1768777137181.3354,1249.8168498168498,,0,-1,1768777137.1813354
1768777137189.148,1254.212454212454,,0,-1,1768777137.189148
1768777137196.9604,1256.4102564102564,,0,-1,1768777137.1969604
1768777137204.773,1263.7362637362637,,0,-1,1768777137.204773
1768777137212.5854,1267.3992673992673,,0,-1,1768777137.2125854
1768777137220.398,1273.992673992674,,0,-1,1768777137.220398
1768777137228.2104,1273.992673992674,,0,-1,1768777137.2282104
1768777137236.023,1276.190476190476,,0,-1,1768777137.236023
1768777137243.8354,1270.3296703296703,,0,-1,1768777137.2438354
1768777137251.648,1264.4688644688645,,0,-1,1768777137.251648
1768777137259.4604,1254.212454212454,,0,-1,1768777137.2594604
1768777137267.273,1250.5494505494505,,0,-1,1768777137.267273
1768777137275.0854,1242.4908424908424,,0,-1,1768777137.2750854
1768777137282.898,1236.6300366300366,,0,-1,1768777137.282898
1768777137290.7104,1229.3040293040292,,0,-1,1768777137.2907104
1768777137298.523,1224.9084249084249,,0,-1,1768777137.298523
1768777137306.3354,1221.9780219780218,,0,-1,1768777137.3063354
1768777137314.148,1221.245421245421,,0,-1,1768777137.314148
1768777137321.9604,1227.106227106227,,0,-1,1768777137.3219604
1768777137329.773,1228.5714285714284,,0,-1,1768777137.329773
1768777137337.5854,1231.5018315018317,,0,-1,1768777137.3375854
1768777137345.398,1239.5604395604396,,0,-1,1768777137.345398
1768777137353.2104,1240.29304029304,,0,-1,1768777137.3532104
1768777137361.023,1244.688644688645,,0,-1,1768777137.361023
1768777137368.8354,1249.8168498168498,,0,-1,1768777137.3688354
1768777137376.648,1259.3406593406592,,0,-1,1768777137.376648
1768777137384.4604,1275.4578754578754,,0,-1,1768777137.3844604
1768777137392.273,1290.10989010989,,0,-1,1768777137.392273
1768777137400.0854,1310.6227106227104,,0,-1,1768777137.4000854
1768777137407.898,1323.8095238095236,,0,-1,1768777137.407898
1768777137415.7104,1336.263736263736,,0,-1,1768777137.4157104
1768777137423.523,1349.4505494505493,,0,-1,1768777137.423523
1768777137431.3354,1356.043956043956,,0,-1,1768777137.4313354
1768777137439.148,1361.1721611721612,,0,-1,1768777137.439148
1768777137446.9604,1369.9633699633698,,0,-1,1768777137.4469604
1768777137454.773,1378.7545787545787,,0,-1,1768777137.454773
1768777137462.5854,1394.139194139194,,0,-1,1768777137.4625854
1768777137470.398,1406.5934065934066,,0,-1,1768777137.470398
1768777137478.2104,1415.3846153846152,,0,-1,1768777137.4782104
1768777137486.023,1426.3736263736262,,0,-1,1768777137.486023
1768777137493.8354,1435.164835164835,,0,-1,1768777137.4938354
1768777137501.648,1438.8278388278388,,0,-1,1768777137.501648
1768777137509.4604,1434.4322344322345,,0,-1,1768777137.5094604
1768777137517.273,1429.3040293040292,,0,-1,1768777137.517273
1768777137525.0854,1419.047619047619,,0,-1,1768777137.5250854
1768777137532.898,1410.2564102564102,,0,-1,1768777137.532898
1768777137540.7104,1405.128205128205,,0,-1,1768777137.5407104
1768777137548.523,1402.197802197802,,0,-1,1768777137.548523
1768777137556.3354,1400.0,,0,-1,1768777137.5563354
1768777137564.148,1398.5347985347985,,0,-1,1768777137.564148
1768777137571.9604,1399.2673992673992,,0,-1,1768777137.5719604
1768777137579.773,1397.069597069597,,0,-1,1768777137.579773
1768777137587.5854,1394.8717948717947,,0,-1,1768777137.5875854
1768777137595.398,1394.139194139194,,0,-1,1768777137.595398
1768777137603.2104,1394.8717948717947,,0,-1,1768777137.6032104
1768777137611.023,1394.8717948717947,,0,-1,1768777137.611023
1768777137618.8354,1397.069597069597,,0,-1,1768777137.6188354
1768777137626.648,1394.139194139194,,0,-1,1768777137.626648
1768777137634.4604,1386.8131868131868,,0,-1,1768777137.6344604
1768777137642.273,1380.952380952381,,0,-1,1768777137.642273
1768777137650.0854,1378.021978021978,,0,-1,1768777137.6500854
1768777137657.898,1376.5567765567764,,0,-1,1768777137.657898
1768777137665.7104,1372.8937728937728,,0,-1,1768777137.6657104
1768777137673.523,1369.230769230769,,0,-1,1768777137.673523
1768777137681.3354,1367.7655677655678,,0,-1,1768777137.6813354
1768777137689.148,1365.5677655677655,,0,-1,1768777137.689148
1768777137696.9604,1361.904761904762,,0,-1,1768777137.6969604
1768777137704.773,1356.043956043956,,0,-1,1768777137.704773
1768777137712.5854,1352.3809523809523,,0,-1,1768777137.7125854
1768777137720.398,1349.4505494505493,,0,-1,1768777137.720398
1768777137728.2104,1347.985347985348,,0,-1,1768777137.7282104
1768777137736.023,1345.7875457875457,,0,-1,1768777137.736023
1768777137743.8354,1345.7875457875457,,0,-1,1768777137.7438354
1768777137751.648,1347.985347985348,,0,-1,1768777137.751648
1768777137759.4604,1346.5201465201465,,0,-1,1768777137.7594604
1768777137767.273,1343.5897435897434,,0,-1,1768777137.767273
1768777137775.0854,1339.194139194139,,0,-1,1768777137.7750854
1768777137782.898,1334.7985347985348,,0,-1,1768777137.782898
1768777137790.7104,1329.6703296703297,,0,-1,1768777137.7907104
1768777137798.523,1325.2747252747251,,0,-1,1768777137.798523
1768777137806.3354,1323.8095238095236,,0,-1,1768777137.8063354
1768777137814.148,1320.8791208791208,,0,-1,1768777137.814148
1768777137821.9604,1316.4835164835165,,0,-1,1768777137.8219604
1768777137829.773,1315.7509157509155,,0,-1,1768777137.829773
1768777137837.5854,1316.4835164835165,,0,-1,1768777137.8375854
1768777137845.398,1317.216117216117,,0,-1,1768777137.845398
1768777137853.2104,1317.9487179487178,,0,-1,1768777137.8532104
1768777137861.023,1317.216117216117,,0,-1,1768777137.861023
1768777137868.8354,1315.7509157509155,,0,-1,1768777137.8688354
1768777137876.648,1318.6813186813183,,0,-1,1768777137.876648
1768777137884.4604,1318.6813186813183,,0,-1,1768777137.8844604
1768777137892.273,1320.14652014652,,0,-1,1768777137.892273
1768777137900.0854,1320.14652014652,,0,-1,1768777137.9000854
1768777137907.898,1319.4139194139193,,0,-1,1768777137.907898
1768777137915.7104,1322.3443223443223,,0,-1,1768777137.9157104
1768777137923.523,1325.2747252747251,,0,-1,1768777137.923523
1768777137931.3354,1326.739926739927,,0,-1,1768777137.9313354
1768777137939.148,1326.007326007326,,0,-1,1768777137.939148
1768777137946.9604,1324.5421245421244,,0,-1,1768777137.9469604
1768777137954.773,1317.9487179487178,,0,-1,1768777137.954773
1768777137962.5854,1312.8205128205127,,0,-1,1768777137.9625854
1768777137970.398,1304.0293040293038,,0,-1,1768777137.970398
1768777137978.2104,1296.7032967032967,,0,-1,1768777137.9782104
1768777137986.023,1294.5054945054944,,0,-1,1768777137.986023
1768777137993.8354,1295.2380952380952,,0,-1,1768777137.9938354
1768777138001.648,1296.7032967032967,,0,-1,1768777138.001648
1768777138009.4604,1293.040293040293,,0,-1,1768777138.0094604
1768777138017.273,1287.9120879120878,,0,-1,1768777138.017273
1768777138025.0854,1284.2490842490845,,0,-1,1768777138.0250854
1768777138032.898,1280.5860805860805,,0,-1,1768777138.032898
1768777138040.7104,1274.7252747252746,,0,-1,1768777138.0407104
1768777138048.523,1268.8644688644688,,0,-1,1768777138.048523
1768777138056.3354,1263.003663003663,,0,-1,1768777138.0563354
1768777138064.148,1258.6080586080586,,0,-1,1768777138.064148
1768777138071.9604,1255.6776556776556,,0,-1,1768777138.0719604
1768777138079.773,1259.3406593406592,,0,-1,1768777138.079773
1768777138087.5854,1261.5384615384614,,0,-1,1768777138.0875854
1768777138095.398,1263.7362637362637,,0,-1,1768777138.095398
1768777138103.2104,1263.7362637362637,,0,-1,1768777138.1032104
1768777138111.023,1263.7362637362637,,0,-1,1768777138.111023
1768777138118.8354,1268.8644688644688,,0,-1,1768777138.1188354
1768777138126.648,1273.992673992674,,0,-1,1768777138.126648
1768777138134.4604,1275.4578754578754,,0,-1,1768777138.1344604
1768777138142.273,1275.4578754578754,,0,-1,1768777138.142273
1768777138150.0854,1274.7252747252746,,0,-1,1768777138.1500854
1768777138157.898,1276.190476190476,,0,-1,1768777138.157898
1768777138165.7104,1276.923076923077,,0,-1,1768777138.1657104
1768777138173.523,1276.190476190476,,0,-1,1768777138.173523
1768777138181.3354,1273.260073260073,,0,-1,1768777138.1813354
1768777138189.148,1270.3296703296703,,0,-1,1768777138.189148
1768777138196.9604,1274.7252747252746,,0,-1,1768777138.1969604
1768777138204.773,1274.7252747252746,,0,-1,1768777138.204773
1768777138212.5854,1276.190476190476,,0,-1,1768777138.2125854
1768777138220.398,1282.7838827838827,,0,-1,1768777138.220398
1768777138228.2104,1285.7142857142856,,0,-1,1768777138.2282104
1768777138236.023,1292.3076923076922,,0,-1,1768777138.236023
1768777138243.8354,1296.7032967032967,,0,-1,1768777138.2438354
1768777138251.648,1306.227106227106,,0,-1,1768777138.251648
1768777138259.4604,1313.5531135531137,,0,-1,1768777138.2594604
1768777138267.273,1319.4139194139193,,0,-1,1768777138.267273
1768777138275.0854,1322.3443223443223,,0,-1,1768777138.2750854
1768777138282.898,1325.2747252747251,,0,-1,1768777138.282898
1768777138290.7104,1336.263736263736,,0,-1,1768777138.2907104
1768777138298.523,1355.311355311355,,0,-1,1768777138.298523
1768777138306.3354,1377.2893772893772,,0,-1,1768777138.3063354
1768777138314.148,1396.3369963369962,,0,-1,1768777138.314148
1768777138321.9604,1413.1868131868132,,0,-1,1768777138.3219604
1768777138329.773,1423.4432234432234,,0,-1,1768777138.329773
1768777138337.5854,1432.9670329670328,,0,-1,1768777138.3375854
1768777138345.398,1444.688644688645,,0,-1,1768777138.345398
1768777138353.2104,1452.7472527472526,,0,-1,1768777138.3532104
1768777138361.023,1458.6080586080584,,0,-1,1768777138.361023
1768777138368.8354,1462.2710622710622,,0,-1,1768777138.3688354
1768777138376.648,1460.805860805861,,0,-1,1768777138.376648
1768777138384.4604,1459.3406593406592,,0,-1,1768777138.3844604
1768777138392.273,1457.875457875458,,0,-1,1768777138.392273
1768777138400.0854,1461.5384615384614,,0,-1,1768777138.4000854
1768777138407.898,1463.7362637362637,,0,-1,1768777138.407898
1768777138415.7104,1464.4688644688645,,0,-1,1768777138.4157104
1768777138423.523,1462.2710622710622,,0,-1,1768777138.423523
1768777138431.3354,1462.2710622710622,,0,-1,1768777138.4313354
1768777138439.148,1464.4688644688645,,0,-1,1768777138.439148
1768777138446.9604,1461.5384615384614,,0,-1,1768777138.4469604
1768777138454.773,1462.2710622710622,,0,-1,1768777138.454773
1768777138462.5854,1462.2710622710622,,0,-1,1768777138.4625854
1768777138470.398,1459.3406593406592,,0,-1,1768777138.470398
1768777138478.2104,1452.7472527472526,,0,-1,1768777138.4782104
1768777138486.023,1448.3516483516482,,0,-1,1768777138.486023
1768777138493.8354,1445.4212454212454,,0,-1,1768777138.4938354
1768777138501.648,1442.4908424908424,,0,-1,1768777138.501648
1768777138509.4604,1443.956043956044,,0,-1,1768777138.5094604
1768777138517.273,1440.29304029304,,0,-1,1768777138.517273
1768777138525.0854,1442.4908424908424,,0,-1,1768777138.5250854
1768777138532.898,1443.956043956044,,0,-1,1768777138.532898
1768777138540.7104,1443.956043956044,,0,-1,1768777138.5407104
1768777138548.523,1447.6190476190477,,0,-1,1768777138.548523
1768777138556.3354,1446.153846153846,,0,-1,1768777138.5563354
1768777138564.148,1441.0256410256409,,0,-1,1768777138.564148
1768777138571.9604,1435.8974358974358,,0,-1,1768777138.5719604
1768777138579.773,1424.175824175824,,0,-1,1768777138.579773
1768777138587.5854,1410.2564102564102,,0,-1,1768777138.5875854
1768777138595.398,1402.9304029304028,,0,-1,1768777138.595398
1768777138603.2104,1393.4065934065934,,0,-1,1768777138.6032104
1768777138611.023,1387.5457875457876,,0,-1,1768777138.611023
1768777138618.8354,1386.080586080586,,0,-1,1768777138.6188354
1768777138626.648,1383.150183150183,,0,-1,1768777138.626648
1768777138634.4604,1380.2197802197802,,0,-1,1768777138.6344604
1768777138642.273,1375.8241758241757,,0,-1,1768777138.642273
1768777138650.0854,1375.8241758241757,,0,-1,1768777138.6500854
1768777138657.898,1372.161172161172,,0,-1,1768777138.657898
1768777138665.7104,1371.428571428571,,0,-1,1768777138.6657104
1768777138673.523,1372.161172161172,,0,-1,1768777138.673523
1768777138681.3354,1377.2893772893772,,0,-1,1768777138.6813354
1768777138689.148,1379.4871794871794,,0,-1,1768777138.689148
1768777138696.9604,1379.4871794871794,,0,-1,1768777138.6969604
1768777138704.773,1379.4871794871794,,0,-1,1768777138.704773
1768777138712.5854,1375.8241758241757,,0,-1,1768777138.7125854
1768777138720.398,1378.7545787545787,,0,-1,1768777138.720398
1768777138728.2104,1376.5567765567764,,0,-1,1768777138.7282104
1768777138736.023,1376.5567765567764,,0,-1,1768777138.736023
1768777138743.8354,1368.4981684981683,,0,-1,1768777138.7438354
1768777138751.648,1361.904761904762,,0,-1,1768777138.751648
1768777138759.4604,1356.043956043956,,0,-1,1768777138.7594604
1768777138767.273,1349.4505494505493,,0,-1,1768777138.767273
1768777138775.0854,1347.985347985348,,0,-1,1768777138.7750854
1768777138782.898,1345.054945054945,,0,-1,1768777138.782898
1768777138790.7104,1345.054945054945,,0,-1,1768777138.7907104
1768777138798.523,1351.6483516483515,,0,-1,1768777138.798523
1768777138806.3354,1356.7765567765566,,0,-1,1768777138.8063354
1768777138814.148,1362.6373626373625,,0,-1,1768777138.814148
1768777138821.9604,1365.5677655677655,,0,-1,1768777138.8219604
1768777138829.773,1362.6373626373625,,0,-1,1768777138.829773
1768777138837.5854,1361.1721611721612,,0,-1,1768777138.8375854
1768777138845.398,1357.5091575091574,,0,-1,1768777138.845398
1768777138853.2104,1350.18315018315,,0,-1,1768777138.8532104
1768777138861.023,1346.5201465201465,,0,-1,1768777138.861023
1768777138868.8354,1342.857142857143,,0,-1,1768777138.8688354
1768777138876.648,1339.194139194139,,0,-1,1768777138.876648
1768777138884.4604,1339.92673992674,,0,-1,1768777138.8844604
1768777138892.273,1336.263736263736,,0,-1,1768777138.892273
1768777138900.0854,1331.8681318681315,,0,-1,1768777138.9000854
1768777138907.898,1334.065934065934,,0,-1,1768777138.907898
1768777138915.7104,1335.5311355311355,,0,-1,1768777138.9157104
1768777138923.523,1339.92673992674,,0,-1,1768777138.923523
1768777138931.3354,1343.5897435897434,,0,-1,1768777138.9313354
1768777138939.148,1342.857142857143,,0,-1,1768777138.939148
1768777138946.9604,1342.124542124542,,0,-1,1768777138.9469604
1768777138954.773,1339.194139194139,,0,-1,1768777138.954773
1768777138962.5854,1328.937728937729,,0,-1,1768777138.9625854
1768777138970.398,1323.076923076923,,0,-1,1768777138.970398
1768777138978.2104,1313.5531135531137,,0,-1,1768777138.9782104
1768777138986.023,1304.0293040293038,,0,-1,1768777138.986023
1768777138993.8354,1303.2967032967033,,0,-1,1768777138.9938354
1768777139001.648,1301.098901098901,,0,-1,1768777139.001648
1768777139009.4604,1298.9010989010987,,0,-1,1768777139.0094604
1768777139017.273,1300.3663003663005,,0,-1,1768777139.017273
1768777139025.0854,1296.7032967032967,,0,-1,1768777139.0250854
1768777139032.898,1291.5750915750914,,0,-1,1768777139.032898
1768777139040.7104,1289.3772893772891,,0,-1,1768777139.0407104
1768777139048.523,1290.8424908424909,,0,-1,1768777139.048523
1768777139056.3354,1290.8424908424909,,0,-1,1768777139.0563354
1768777139064.148,1289.3772893772891,,0,-1,1768777139.064148
1768777139071.9604,1285.7142857142856,,0,-1,1768777139.0719604
1768777139079.773,1282.051282051282,,0,-1,1768777139.079773
1768777139087.5854,1277.6556776556777,,0,-1,1768777139.0875854
1768777139095.398,1273.260073260073,,0,-1,1768777139.095398
1768777139103.2104,1272.5274725274724,,0,-1,1768777139.1032104
1768777139111.023,1271.7948717948716,,0,-1,1768777139.111023
1768777139118.8354,1273.992673992674,,0,-1,1768777139.1188354
1768777139126.648,1277.6556776556777,,0,-1,1768777139.126648
1768777139134.4604,1278.3882783882782,,0,-1,1768777139.1344604
1768777139142.273,1279.120879120879,,0,-1,1768777139.142273
1768777139150.0854,1276.923076923077,,0,-1,1768777139.1500854
1768777139157.898,1277.6556776556777,,0,-1,1768777139.157898
1768777139165.7104,1279.120879120879,,0,-1,1768777139.1657104
1768777139173.523,1284.9816849816848,,0,-1,1768777139.173523
1768777139181.3354,1294.5054945054944,,0,-1,1768777139.1813354
1768777139189.148,1304.0293040293038,,0,-1,1768777139.189148
1768777139196.9604,1317.9487179487178,,0,-1,1768777139.1969604
1768777139204.773,1334.065934065934,,0,-1,1768777139.204773
1768777139212.5854,1350.9157509157508,,0,-1,1768777139.2125854
1768777139220.398,1369.9633699633698,,0,-1,1768777139.220398
1768777139228.2104,1389.0109890109889,,0,-1,1768777139.2282104
1768777139236.023,1410.2564102564102,,0,-1,1768777139.236023
1768777139243.8354,1426.3736263736262,,0,-1,1768777139.2438354
1768777139251.648,1436.6300366300366,,0,-1,1768777139.251648
1768777139259.4604,1444.688644688645,,0,-1,1768777139.2594604
1768777139267.273,1452.7472527472526,,1,2,1768777139.267273
1768777139275.0854,1458.6080586080584,,1,2,1768777139.2750854
1768777139282.898,1463.003663003663,,1,2,1768777139.282898
1768777139290.7104,1467.3992673992673,,1,2,1768777139.2907104
1768777139298.523,1471.7948717948716,,1,2,1768777139.298523
1768777139306.3354,1477.6556776556777,,1,2,1768777139.3063354
1768777139314.148,1484.2490842490845,,1,2,1768777139.314148
1768777139321.9604,1493.040293040293,,1,2,1768777139.3219604
1768777139329.773,1500.3663003663005,,1,2,1768777139.329773
1768777139337.5854,1503.2967032967033,,1,2,1768777139.3375854
1768777139345.398,1506.227106227106,,1,2,1768777139.345398
1768777139353.2104,1506.9597069597069,,1,2,1768777139.3532104
1768777139361.023,1509.89010989011,,1,2,1768777139.361023
1768777139368.8354,1512.8205128205127,,1,2,1768777139.3688354
1768777139376.648,1512.8205128205127,,1,2,1768777139.376648
1768777139384.4604,1510.6227106227104,,1,2,1768777139.3844604
1768777139392.273,1502.5641025641023,,1,2,1768777139.392273
1768777139400.0854,1495.970695970696,,1,2,1768777139.4000854
1768777139407.898,1487.9120879120878,,1,2,1768777139.407898
1768777139415.7104,1479.8534798534797,,1,2,1768777139.4157104
1768777139423.523,1472.5274725274724,,1,2,1768777139.423523
1768777139431.3354,1467.3992673992673,,1,2,1768777139.4313354
1768777139439.148,1461.5384615384614,,1,2,1768777139.439148
1768777139446.9604,1457.875457875458,,1,2,1768777139.4469604
1768777139454.773,1454.9450549450548,,1,2,1768777139.454773
1768777139462.5854,1452.7472527472526,,1,2,1768777139.4625854
1768777139470.398,1451.2820512820513,,1,2,1768777139.470398
1768777139478.2104,1450.5494505494505,,1,2,1768777139.4782104
1768777139486.023,1449.8168498168498,,1,2,1768777139.486023
1768777139493.8354,1449.084249084249,,1,2,1768777139.4938354
1768777139501.648,1441.7582417582416,,1,2,1768777139.501648
1768777139509.4604,1435.8974358974358,,1,2,1768777139.5094604
1768777139517.273,1430.7692307692307,,1,2,1768777139.517273
1768777139525.0854,1427.8388278388277,,1,2,1768777139.5250854
1768777139532.898,1423.4432234432234,,1,2,1768777139.532898
1768777139540.7104,1421.245421245421,,1,2,1768777139.5407104
1768777139548.523,1421.9780219780218,,1,2,1768777139.548523
1768777139556.3354,1422.7106227106226,,1,2,1768777139.5563354
1768777139564.148,1421.9780219780218,,1,2,1768777139.564148
1768777139571.9604,1415.3846153846152,,1,2,1768777139.5719604
1768777139579.773,1411.7216117216117,,1,2,1768777139.579773
1768777139587.5854,1409.5238095238094,,1,2,1768777139.5875854
1768777139595.398,1407.3260073260071,,1,2,1768777139.595398
1768777139603.2104,1405.128205128205,,1,2,1768777139.6032104
1768777139611.023,1403.6630036630036,,1,2,1768777139.611023
1768777139618.8354,1402.197802197802,,1,2,1768777139.6188354
1768777139626.648,1401.4652014652013,,1,2,1768777139.626648
1768777139634.4604,1405.8608058608058,,1,2,1768777139.6344604
1768777139642.273,1406.5934065934066,,1,2,1768777139.642273
1768777139650.0854,1404.3956043956043,,1,2,1768777139.6500854
1768777139657.898,1402.9304029304028,,1,2,1768777139.657898
1768777139665.7104,1399.2673992673992,,1,2,1768777139.6657104
1768777139673.523,1395.6043956043954,,1,2,1768777139.673523
1768777139681.3354,1393.4065934065934,,1,2,1768777139.6813354
1768777139689.148,1386.080586080586,,1,2,1768777139.689148
1768777139696.9604,1376.5567765567764,,1,2,1768777139.6969604
1768777139704.773,1372.8937728937728,,1,2,1768777139.704773
1768777139712.5854,1365.5677655677655,,1,2,1768777139.7125854
1768777139720.398,1361.1721611721612,,1,2,1768777139.720398
1768777139728.2104,1357.5091575091574,,1,2,1768777139.7282104
1768777139736.023,1348.7179487179487,,1,2,1768777139.736023
1768777139743.8354,1343.5897435897434,,1,2,1768777139.7438354
1768777139751.648,1338.4615384615383,,1,2,1768777139.751648
1768777139759.4604,1333.3333333333333,,1,2,1768777139.7594604
1768777139767.273,1329.6703296703297,,1,2,1768777139.767273
1768777139775.0854,1328.937728937729,,1,2,1768777139.7750854
1768777139782.898,1326.007326007326,,1,2,1768777139.782898
1768777139790.7104,1326.007326007326,,1,2,1768777139.7907104
1768777139798.523,1325.2747252747251,,1,2,1768777139.798523
1768777139806.3354,1322.3443223443223,,1,2,1768777139.8063354
1768777139814.148,1323.076923076923,,1,2,1768777139.814148
1768777139821.9604,1319.4139194139193,,1,2,1768777139.8219604
1768777139829.773,1319.4139194139193,,1,2,1768777139.829773
1768777139837.5854,1313.5531135531137,,1,2,1768777139.8375854
1768777139845.398,1309.89010989011,,1,2,1768777139.845398
1768777139853.2104,1307.6923076923076,,1,2,1768777139.8532104
1768777139861.023,1303.2967032967033,,1,2,1768777139.861023
1768777139868.8354,1302.5641025641023,,1,2,1768777139.8688354
1768777139876.648,1298.9010989010987,,1,2,1768777139.876648
1768777139884.4604,1297.4358974358977,,1,2,1768777139.8844604
1768777139892.273,1287.9120879120878,,1,2,1768777139.892273
1768777139900.0854,1279.8534798534797,,1,2,1768777139.9000854
1768777139907.898,1278.3882783882782,,1,2,1768777139.907898
1768777139915.7104,1276.190476190476,,1,2,1768777139.9157104
1768777139923.523,1280.5860805860805,,1,2,1768777139.923523
1768777139931.3354,1284.2490842490845,,1,2,1768777139.9313354
1768777139939.148,1295.970695970696,,1,2,1768777139.939148
1768777139946.9604,1308.4249084249084,,1,2,1768777139.9469604
1768777139954.773,1317.9487179487178,,1,2,1768777139.954773
1768777139962.5854,1323.076923076923,,1,2,1768777139.9625854
1768777139970.398,1328.2051282051282,,1,2,1768777139.970398
1768777139978.2104,1326.739926739927,,1,2,1768777139.9782104
1768777139986.023,1326.007326007326,,1,2,1768777139.986023
1768777139993.8354,1321.6117216117216,,1,2,1768777139.9938354
1768777140001.648,1315.7509157509155,,1,2,1768777140.001648
1768777140009.4604,1308.4249084249084,,1,2,1768777140.0094604
1768777140017.273,1298.168498168498,,1,2,1768777140.017273
1768777140025.0854,1293.040293040293,,1,2,1768777140.0250854
1768777140032.898,1287.9120879120878,,1,2,1768777140.032898
1768777140040.7104,1288.6446886446886,,1,2,1768777140.0407104
1768777140048.523,1283.5164835164835,,1,2,1768777140.048523
1768777140056.3354,1281.3186813186812,,1,2,1768777140.0563354
1768777140064.148,1273.992673992674,,1,2,1768777140.064148
1768777140071.9604,1269.5970695970695,,1,2,1768777140.0719604
1768777140079.773,1264.4688644688645,,1,2,1768777140.079773
1768777140087.5854,1260.805860805861,,1,2,1768777140.0875854
1768777140095.398,1263.003663003663,,1,2,1768777140.095398
1768777140103.2104,1270.3296703296703,,1,2,1768777140.1032104
1768777140111.023,1279.120879120879,,1,2,1768777140.111023
1768777140118.8354,1298.9010989010987,,1,2,1768777140.1188354
1768777140126.648,1319.4139194139193,,1,2,1768777140.126648
1768777140134.4604,1342.124542124542,,1,2,1768777140.1344604
1768777140142.273,1369.9633699633698,,1,2,1768777140.142273
1768777140150.0854,1393.4065934065934,,1,2,1768777140.1500854
1768777140157.898,1414.6520146520145,,1,2,1768777140.157898
1768777140165.7104,1441.0256410256409,,1,2,1768777140.1657104
1768777140173.523,1465.201465201465,,1,2,1768777140.173523
1768777140181.3354,1482.7838827838827,,1,2,1768777140.1813354
1768777140189.148,1503.2967032967033,,1,2,1768777140.189148
1768777140196.9604,1512.8205128205127,,1,2,1768777140.1969604
1768777140204.773,1519.4139194139193,,1,2,1768777140.204773
1768777140212.5854,1526.739926739927,,1,2,1768777140.2125854
1768777140220.398,1526.739926739927,,1,2,1768777140.220398
1768777140228.2104,1526.739926739927,,1,2,1768777140.2282104
1768777140236.023,1523.8095238095236,,1,2,1768777140.236023
1768777140243.8354,1518.6813186813183,,1,2,1768777140.2438354
1768777140251.648,1517.9487179487178,,1,2,1768777140.251648
1768777140259.4604,1512.087912087912,,1,2,1768777140.2594604
1768777140267.273,1507.6923076923076,,1,2,1768777140.267273
1768777140275.0854,1501.8315018315018,,1,2,1768777140.2750854
1768777140282.898,1493.040293040293,,1,2,1768777140.282898
1768777140290.7104,1487.179487179487,,1,2,1768777140.2907104
1768777140298.523,1484.9816849816848,,1,2,1768777140.298523
1768777140306.3354,1479.120879120879,,1,2,1768777140.3063354
1768777140314.148,1475.4578754578754,,1,2,1768777140.314148
1768777140321.9604,1469.5970695970695,,1,2,1768777140.3219604
1768777140329.773,1461.5384615384614,,1,2,1768777140.329773
1768777140337.5854,1457.142857142857,,1,2,1768777140.3375854
1768777140345.398,1452.014652014652,,1,2,1768777140.345398
1768777140353.2104,1446.8864468864467,,1,2,1768777140.3532104
1768777140361.023,1447.6190476190477,,1,2,1768777140.361023
1768777140368.8354,1449.8168498168498,,1,2,1768777140.3688354
1768777140376.648,1449.084249084249,,1,2,1768777140.376648
1768777140384.4604,1449.084249084249,,1,2,1768777140.3844604
1768777140392.273,1450.5494505494505,,1,2,1768777140.392273
1768777140400.0854,1452.014652014652,,1,2,1768777140.4000854
1768777140407.898,1452.014652014652,,1,2,1768777140.407898
1768777140415.7104,1447.6190476190477,,1,2,1768777140.4157104
1768777140423.523,1442.4908424908424,,1,2,1768777140.423523
1768777140431.3354,1437.362637362637,,1,2,1768777140.4313354
1768777140439.148,1432.9670329670328,,1,2,1768777140.439148
1768777140446.9604,1428.5714285714284,,1,2,1768777140.4469604
1768777140454.773,1421.9780219780218,,1,2,1768777140.454773
1768777140462.5854,1421.245421245421,,1,2,1768777140.4625854
1768777140470.398,1418.3150183150185,,1,2,1768777140.470398
1768777140478.2104,1418.3150183150185,,1,2,1768777140.4782104
1768777140486.023,1419.047619047619,,1,2,1768777140.486023
1768777140493.8354,1419.047619047619,,1,2,1768777140.4938354
1768777140501.648,1417.5824175824175,,1,2,1768777140.501648
1768777140509.4604,1416.117216117216,,1,2,1768777140.5094604
1768777140517.273,1413.9194139194135,,1,2,1768777140.517273
1768777140525.0854,1410.2564102564102,,1,2,1768777140.5250854
1768777140532.898,1407.3260073260071,,1,2,1768777140.532898
1768777140540.7104,1405.8608058608058,,1,2,1768777140.5407104
1768777140548.523,1403.6630036630036,,1,2,1768777140.548523
1768777140556.3354,1403.6630036630036,,1,2,1768777140.5563354
1768777140564.148,1404.3956043956043,,1,2,1768777140.564148
1768777140571.9604,1403.6630036630036,,1,2,1768777140.5719604
1768777140579.773,1400.0,,1,2,1768777140.579773
1768777140587.5854,1397.8021978021975,,1,2,1768777140.5875854
1768777140595.398,1394.139194139194,,1,2,1768777140.595398
1768777140603.2104,1391.2087912087911,,1,2,1768777140.6032104
1768777140611.023,1387.5457875457876,,1,2,1768777140.611023
1768777140618.8354,1381.6849816849815,,1,2,1768777140.6188354
1768777140626.648,1375.091575091575,,1,2,1768777140.626648
1768777140634.4604,1367.7655677655678,,1,2,1768777140.6344604
1768777140642.273,1364.102564102564,,1,2,1768777140.642273
1768777140650.0854,1356.7765567765566,,1,2,1768777140.6500854
1768777140657.898,1347.2527472527472,,1,2,1768777140.657898
1768777140665.7104,1335.5311355311355,,1,2,1768777140.6657104
1768777140673.523,1327.4725274725274,,1,2,1768777140.673523
1768777140681.3354,1322.3443223443223,,1,2,1768777140.6813354
1768777140689.148,1320.14652014652,,1,2,1768777140.689148
1768777140696.9604,1325.2747252747251,,1,2,1768777140.6969604
1768777140704.773,1330.4029304029302,,1,2,1768777140.704773
1768777140712.5854,1336.263736263736,,1,2,1768777140.7125854
1768777140720.398,1337.7289377289376,,1,2,1768777140.720398
1768777140728.2104,1339.194139194139,,1,2,1768777140.7282104
1768777140736.023,1342.124542124542,,1,2,1768777140.736023
1768777140743.8354,1342.857142857143,,1,2,1768777140.7438354
1768777140751.648,1337.7289377289376,,1,2,1768777140.751648
1768777140759.4604,1333.3333333333333,,1,2,1768777140.7594604
1768777140767.273,1331.8681318681315,,1,2,1768777140.767273
1768777140775.0854,1326.739926739927,,1,2,1768777140.7750854
1768777140782.898,1320.8791208791208,,1,2,1768777140.782898
1768777140790.7104,1316.4835164835165,,1,2,1768777140.7907104
1768777140798.523,1316.4835164835165,,1,2,1768777140.798523
1768777140806.3354,1322.3443223443223,,1,2,1768777140.8063354
1768777140814.148,1323.076923076923,,1,2,1768777140.814148
1768777140821.9604,1325.2747252747251,,1,2,1768777140.8219604
1768777140829.773,1329.6703296703297,,1,2,1768777140.829773
1768777140837.5854,1334.7985347985348,,1,2,1768777140.8375854
1768777140845.398,1336.263736263736,,1,2,1768777140.845398
1768777140853.2104,1335.5311355311355,,1,2,1768777140.8532104
1768777140861.023,1331.8681318681315,,1,2,1768777140.861023
1768777140868.8354,1326.007326007326,,1,2,1768777140.8688354
1768777140876.648,1320.14652014652,,1,2,1768777140.876648
1768777140884.4604,1312.8205128205127,,1,2,1768777140.8844604
1768777140892.273,1306.227106227106,,1,2,1768777140.892273
1768777140900.0854,1295.2380952380952,,1,2,1768777140.9000854
1768777140907.898,1284.9816849816848,,1,2,1768777140.907898
1768777140915.7104,1276.190476190476,,1,2,1768777140.9157104
1768777140923.523,1272.5274725274724,,1,2,1768777140.923523
1768777140931.3354,1273.992673992674,,1,2,1768777140.9313354
1768777140939.148,1278.3882783882782,,1,2,1768777140.939148
1768777140946.9604,1281.3186813186812,,1,2,1768777140.9469604
1768777140954.773,1284.2490842490845,,1,2,1768777140.954773
1768777140962.5854,1287.179487179487,,1,2,1768777140.9625854
1768777140970.398,1290.10989010989,,1,2,1768777140.970398
1768777140978.2104,1297.4358974358977,,1,2,1768777140.9782104
1768777140986.023,1304.7619047619046,,1,2,1768777140.986023
1768777140993.8354,1315.7509157509155,,1,2,1768777140.9938354
1768777141001.648,1331.8681318681315,,1,2,1768777141.001648
1768777141009.4604,1348.7179487179487,,1,2,1768777141.0094604
1768777141017.273,1367.7655677655678,,1,2,1768777141.017273
1768777141025.0854,1386.080586080586,,1,2,1768777141.0250854
1768777141032.898,1402.197802197802,,1,2,1768777141.032898
1768777141040.7104,1414.6520146520145,,1,2,1768777141.0407104
1768777141048.523,1429.3040293040292,,1,2,1768777141.048523
1768777141056.3354,1445.4212454212454,,1,2,1768777141.0563354
1768777141064.148,1462.2710622710622,,1,2,1768777141.064148
1768777141071.9604,1479.8534798534797,,1,2,1768777141.0719604
1768777141079.773,1495.2380952380952,,1,2,1768777141.079773
1768777141087.5854,1506.9597069597069,,1,2,1768777141.0875854
1768777141095.398,1513.5531135531137,,1,2,1768777141.095398
1768777141103.2104,1517.216117216117,,1,2,1768777141.1032104
1768777141111.023,1518.6813186813183,,1,2,1768777141.111023
1768777141118.8354,1515.018315018315,,1,2,1768777141.1188354
1768777141126.648,1504.0293040293038,,1,2,1768777141.126648
1768777141134.4604,1493.040293040293,,1,2,1768777141.1344604
1768777141142.273,1484.2490842490845,,1,2,1768777141.142273
1768777141150.0854,1475.4578754578754,,1,2,1768777141.1500854
1768777141157.898,1468.8644688644688,,1,2,1768777141.157898
1768777141165.7104,1458.6080586080584,,1,2,1768777141.1657104
1768777141173.523,1448.3516483516482,,1,2,1768777141.173523
1768777141181.3354,1436.6300366300366,,1,2,1768777141.1813354
1768777141189.148,1434.4322344322345,,1,2,1768777141.189148
1768777141196.9604,1435.164835164835,,1,2,1768777141.1969604
1768777141204.773,1437.362637362637,,1,2,1768777141.204773
1768777141212.5854,1439.5604395604394,,1,2,1768777141.2125854
1768777141220.398,1436.6300366300366,,1,2,1768777141.220398
1768777141228.2104,1437.362637362637,,1,2,1768777141.2282104
1768777141236.023,1433.6996336996335,,1,2,1768777141.236023
1768777141243.8354,1435.8974358974358,,1,2,1768777141.2438354
1768777141251.648,1438.8278388278388,,1,2,1768777141.251648
1768777141259.4604,1439.5604395604394,,1,2,1768777141.2594604
1768777141267.273,1443.2234432234432,,1,2,1768777141.267273
1768777141275.0854,1446.8864468864467,,1,2,1768777141.2750854
1768777141282.898,1445.4212454212454,,1,2,1768777141.282898
1768777141290.7104,1442.4908424908424,,1,2,1768777141.2907104
1768777141298.523,1438.8278388278388,,1,2,1768777141.298523
1768777141306.3354,1432.9670329670328,,1,2,1768777141.3063354
1768777141314.148,1431.5018315018317,,1,2,1768777141.314148
1768777141321.9604,1430.7692307692307,,1,2,1768777141.3219604
1768777141329.773,1432.9670329670328,,1,2,1768777141.329773
1768777141337.5854,1430.7692307692307,,1,2,1768777141.3375854
1768777141345.398,1430.7692307692307,,1,2,1768777141.345398
1768777141353.2104,1427.106227106227,,1,2,1768777141.3532104
1768777141361.023,1427.106227106227,,1,2,1768777141.361023
1768777141368.8354,1421.245421245421,,1,2,1768777141.3688354
1768777141376.648,1416.8498168498168,,1,2,1768777141.376648
1768777141384.4604,1409.5238095238094,,1,2,1768777141.3844604
1768777141392.273,1394.139194139194,,1,2,1768777141.392273
1768777141400.0854,1386.080586080586,,1,2,1768777141.4000854
1768777141407.898,1378.021978021978,,1,2,1768777141.407898
1768777141415.7104,1375.8241758241757,,1,2,1768777141.4157104
1768777141423.523,1369.230769230769,,1,2,1768777141.423523
1768777141431.3354,1370.6959706959706,,1,2,1768777141.4313354
1768777141439.148,1367.032967032967,,1,2,1768777141.439148
1768777141446.9604,1369.230769230769,,1,2,1768777141.4469604
1768777141454.773,1369.230769230769,,1,2,1768777141.454773
1768777141462.5854,1367.032967032967,,1,2,1768777141.4625854
1768777141470.398,1366.3003663003662,,1,2,1768777141.470398
1768777141478.2104,1359.7069597069597,,1,2,1768777141.4782104
1768777141486.023,1360.4395604395604,,1,2,1768777141.486023
1768777141493.8354,1365.5677655677655,,1,2,1768777141.4938354
1768777141501.648,1366.3003663003662,,1,2,1768777141.501648
1768777141509.4604,1373.6263736263736,,1,2,1768777141.5094604
1768777141517.273,1379.4871794871794,,1,2,1768777141.517273
1768777141525.0854,1382.4175824175825,,1,2,1768777141.5250854
1768777141532.898,1385.3479853479853,,1,2,1768777141.532898
1768777141540.7104,1377.2893772893772,,1,2,1768777141.5407104
1768777141548.523,1368.4981684981683,,1,2,1768777141.548523
1768777141556.3354,1359.7069597069597,,1,2,1768777141.5563354
1768777141564.148,1347.2527472527472,,1,2,1768777141.564148
1768777141571.9604,1340.6593406593406,,1,2,1768777141.5719604
1768777141579.773,1334.065934065934,,1,2,1768777141.579773
1768777141587.5854,1330.4029304029302,,1,2,1768777141.5875854
1768777141595.398,1328.937728937729,,1,2,1768777141.595398
1768777141603.2104,1329.6703296703297,,1,2,1768777141.6032104
1768777141611.023,1323.076923076923,,1,2,1768777141.611023
1768777141618.8354,1309.89010989011,,1,2,1768777141.6188354
1768777141626.648,1301.8315018315018,,1,2,1768777141.626648
1768777141634.4604,1299.6336996336995,,1,2,1768777141.6344604
1768777141642.273,1298.9010989010987,,1,2,1768777141.642273
1768777141650.0854,1298.9010989010987,,1,2,1768777141.6500854
1768777141657.898,1298.9010989010987,,1,2,1768777141.657898
1768777141665.7104,1297.4358974358977,,1,2,1768777141.6657104
1768777141673.523,1295.970695970696,,1,2,1768777141.673523
1768777141681.3354,1294.5054945054944,,1,2,1768777141.6813354
1768777141689.148,1292.3076923076922,,1,2,1768777141.689148
1768777141696.9604,1295.970695970696,,1,2,1768777141.6969604
1768777141704.773,1301.8315018315018,,1,2,1768777141.704773
1768777141712.5854,1307.6923076923076,,1,2,1768777141.7125854
1768777141720.398,1313.5531135531137,,1,2,1768777141.720398
1768777141728.2104,1319.4139194139193,,1,2,1768777141.7282104
1768777141736.023,1322.3443223443223,,1,2,1768777141.736023
1768777141743.8354,1318.6813186813183,,1,2,1768777141.7438354
1768777141751.648,1315.018315018315,,0,-1,1768777141.751648
1768777141759.4604,1312.087912087912,,0,-1,1768777141.7594604
1768777141767.273,1309.89010989011,,0,-1,1768777141.767273
1768777141775.0854,1305.4945054945051,,0,-1,1768777141.7750854
1768777141782.898,1304.0293040293038,,0,-1,1768777141.782898
1768777141790.7104,1306.9597069597069,,0,-1,1768777141.7907104
1768777141798.523,1314.2857142857142,,0,-1,1768777141.798523
1768777141806.3354,1323.076923076923,,0,-1,1768777141.8063354
1768777141814.148,1330.4029304029302,,0,-1,1768777141.814148
1768777141821.9604,1341.3919413919414,,0,-1,1768777141.8219604
1768777141829.773,1356.043956043956,,0,-1,1768777141.829773
1768777141837.5854,1377.2893772893772,,0,-1,1768777141.8375854
1768777141845.398,1403.6630036630036,,0,-1,1768777141.845398
1768777141853.2104,1430.7692307692307,,0,-1,1768777141.8532104
1768777141861.023,1458.6080586080584,,0,-1,1768777141.861023
1768777141868.8354,1480.5860805860805,,0,-1,1768777141.8688354
1768777141876.648,1499.6336996336995,,0,-1,1768777141.876648
1768777141884.4604,1511.3553113553112,,0,-1,1768777141.8844604
1768777141892.273,1518.6813186813183,,0,-1,1768777141.892273
1768777141900.0854,1520.8791208791208,,0,-1,1768777141.9000854
1768777141907.898,1519.4139194139193,,0,-1,1768777141.907898
1768777141915.7104,1517.216117216117,,0,-1,1768777141.9157104
1768777141923.523,1512.087912087912,,0,-1,1768777141.923523
1768777141931.3354,1503.2967032967033,,0,-1,1768777141.9313354
1768777141939.148,1490.8424908424906,,0,-1,1768777141.939148
1768777141946.9604,1481.3186813186812,,0,-1,1768777141.9469604
1768777141954.773,1474.7252747252746,,0,-1,1768777141.954773
1768777141962.5854,1472.5274725274724,,0,-1,1768777141.9625854
1768777141970.398,1473.992673992674,,0,-1,1768777141.970398
1768777141978.2104,1476.190476190476,,0,-1,1768777141.9782104
1768777141986.023,1475.4578754578754,,0,-1,1768777141.986023
1768777141993.8354,1471.062271062271,,0,-1,1768777141.9938354
1768777142001.648,1463.003663003663,,0,-1,1768777142.001648
1768777142009.4604,1452.014652014652,,0,-1,1768777142.0094604
1768777142017.273,1443.2234432234432,,0,-1,1768777142.017273
1768777142025.0854,1434.4322344322345,,0,-1,1768777142.0250854
1768777142032.898,1424.9084249084249,,0,-1,1768777142.032898
1768777142040.7104,1418.3150183150185,,0,-1,1768777142.0407104
1768777142048.523,1414.6520146520145,,0,-1,1768777142.048523
1768777142056.3354,1411.7216117216117,,0,-1,1768777142.0563354
1768777142064.148,1410.989010989011,,0,-1,1768777142.064148
1768777142071.9604,1410.2564102564102,,0,-1,1768777142.0719604
1768777142079.773,1411.7216117216117,,0,-1,1768777142.079773
1768777142087.5854,1415.3846153846152,,0,-1,1768777142.0875854
1768777142095.398,1421.245421245421,,0,-1,1768777142.095398
1768777142103.2104,1427.8388278388277,,0,-1,1768777142.1032104
1768777142111.023,1432.9670329670328,,0,-1,1768777142.111023
1768777142118.8354,1436.6300366300366,,0,-1,1768777142.1188354
1768777142126.648,1439.5604395604394,,0,-1,1768777142.126648
1768777142134.4604,1438.095238095238,,0,-1,1768777142.1344604
1768777142142.273,1435.164835164835,,0,-1,1768777142.142273
1768777142150.0854,1430.7692307692307,,0,-1,1768777142.1500854
1768777142157.898,1425.6410256410256,,0,-1,1768777142.157898
1768777142165.7104,1421.245421245421,,0,-1,1768777142.1657104
1768777142173.523,1419.047619047619,,0,-1,1768777142.173523
1768777142181.3354,1413.1868131868132,,0,-1,1768777142.1813354
1768777142189.148,1403.6630036630036,,0,-1,1768777142.189148
1768777142196.9604,1396.3369963369962,,0,-1,1768777142.1969604
1768777142204.773,1394.139194139194,,0,-1,1768777142.204773
1768777142212.5854,1391.941391941392,,0,-1,1768777142.2125854
1768777142220.398,1391.2087912087911,,0,-1,1768777142.220398
1768777142228.2104,1388.278388278388,,0,-1,1768777142.2282104
1768777142236.023,1381.6849816849815,,0,-1,1768777142.236023
1768777142243.8354,1376.5567765567764,,0,-1,1768777142.2438354
1768777142251.648,1372.8937728937728,,0,-1,1768777142.251648
1768777142259.4604,1372.161172161172,,0,-1,1768777142.2594604
1768777142267.273,1367.7655677655678,,0,-1,1768777142.267273
1768777142275.0854,1366.3003663003662,,0,-1,1768777142.2750854
1768777142282.898,1364.8351648351647,,0,-1,1768777142.282898
1768777142290.7104,1364.8351648351647,,0,-1,1768777142.2907104
1768777142298.523,1364.102564102564,,0,-1,1768777142.298523
1768777142306.3354,1360.4395604395604,,0,-1,1768777142.3063354
1768777142314.148,1360.4395604395604,,0,-1,1768777142.314148
1768777142321.9604,1358.241758241758,,0,-1,1768777142.3219604
1768777142329.773,1353.8461538461538,,0,-1,1768777142.329773
1768777142337.5854,1351.6483516483515,,0,-1,1768777142.3375854
1768777142345.398,1352.3809523809523,,0,-1,1768777142.345398
1768777142353.2104,1353.113553113553,,0,-1,1768777142.3532104
1768777142361.023,1351.6483516483515,,0,-1,1768777142.361023
1768777142368.8354,1347.985347985348,,0,-1,1768777142.3688354
1768777142376.648,1343.5897435897434,,0,-1,1768777142.376648
1768777142384.4604,1340.6593406593406,,0,-1,1768777142.3844604
1768777142392.273,1338.4615384615383,,0,-1,1768777142.392273
1768777142400.0854,1336.9963369963368,,0,-1,1768777142.4000854
1768777142407.898,1330.4029304029302,,0,-1,1768777142.407898
1768777142415.7104,1329.6703296703297,,0,-1,1768777142.4157104
1768777142423.523,1326.739926739927,,0,-1,1768777142.423523
1768777142431.3354,1323.076923076923,,0,-1,1768777142.4313354
1768777142439.148,1322.3443223443223,,0,-1,1768777142.439148
1768777142446.9604,1315.018315018315,,0,-1,1768777142.4469604
1768777142454.773,1314.2857142857142,,0,-1,1768777142.454773
1768777142462.5854,1309.1575091575091,,0,-1,1768777142.4625854
1768777142470.398,1309.1575091575091,,0,-1,1768777142.470398
1768777142478.2104,1304.0293040293038,,0,-1,1768777142.4782104
1768777142486.023,1301.098901098901,,0,-1,1768777142.486023
1768777142493.8354,1298.9010989010987,,0,-1,1768777142.4938354
1768777142501.648,1294.5054945054944,,0,-1,1768777142.501648
1768777142509.4604,1293.7728937728937,,0,-1,1768777142.5094604
1768777142517.273,1290.8424908424909,,0,-1,1768777142.517273
1768777142525.0854,1284.2490842490845,,0,-1,1768777142.5250854
1768777142532.898,1275.4578754578754,,0,-1,1768777142.532898
1768777142540.7104,1271.062271062271,,0,-1,1768777142.5407104
1768777142548.523,1263.003663003663,,0,-1,1768777142.548523
1768777142556.3354,1262.2710622710622,,0,-1,1768777142.5563354
1768777142564.148,1258.6080586080586,,0,-1,1768777142.564148
1768777142571.9604,1260.805860805861,,0,-1,1768777142.5719604
1768777142579.773,1261.5384615384614,,0,-1,1768777142.579773
1768777142587.5854,1268.131868131868,,0,-1,1768777142.5875854
1768777142595.398,1281.3186813186812,,0,-1,1768777142.595398
1768777142603.2104,1293.7728937728937,,0,-1,1768777142.6032104
1768777142611.023,1309.89010989011,,0,-1,1768777142.611023
1768777142618.8354,1322.3443223443223,,0,-1,1768777142.6188354
1768777142626.648,1339.92673992674,,0,-1,1768777142.626648
1768777142634.4604,1355.311355311355,,0,-1,1768777142.6344604
1768777142642.273,1370.6959706959706,,0,-1,1768777142.642273
1768777142650.0854,1382.4175824175825,,0,-1,1768777142.6500854
1768777142657.898,1394.139194139194,,0,-1,1768777142.657898
1768777142665.7104,1406.5934065934066,,0,-1,1768777142.6657104
1768777142673.523,1416.117216117216,,0,-1,1768777142.673523
1768777142681.3354,1426.3736263736262,,0,-1,1768777142.6813354
1768777142689.148,1427.8388278388277,,0,-1,1768777142.689148
1768777142696.9604,1430.7692307692307,,0,-1,1768777142.6969604
1768777142704.773,1427.8388278388277,,0,-1,1768777142.704773
1768777142712.5854,1428.5714285714284,,0,-1,1768777142.7125854
1768777142720.398,1434.4322344322345,,0,-1,1768777142.720398
1768777142728.2104,1445.4212454212454,,0,-1,1768777142.7282104
1768777142736.023,1452.7472527472526,,0,-1,1768777142.736023
1768777142743.8354,1465.201465201465,,0,-1,1768777142.7438354
1768777142751.648,1471.7948717948716,,0,-1,1768777142.751648
1768777142759.4604,1479.8534798534797,,0,-1,1768777142.7594604
1768777142767.273,1479.8534798534797,,0,-1,1768777142.767273
1768777142775.0854,1483.5164835164835,,0,-1,1768777142.7750854
1768777142782.898,1484.9816849816848,,0,-1,1768777142.782898
1768777142790.7104,1485.7142857142856,,0,-1,1768777142.7907104
1768777142798.523,1490.8424908424906,,0,-1,1768777142.798523
1768777142806.3354,1488.6446886446886,,0,-1,1768777142.8063354
1768777142814.148,1490.10989010989,,0,-1,1768777142.814148
1768777142821.9604,1482.7838827838827,,0,-1,1768777142.8219604
1768777142829.773,1476.190476190476,,0,-1,1768777142.829773
1768777142837.5854,1465.9340659340658,,0,-1,1768777142.8375854
1768777142845.398,1457.142857142857,,0,-1,1768777142.845398
1768777142853.2104,1449.084249084249,,0,-1,1768777142.8532104
1768777142861.023,1444.688644688645,,0,-1,1768777142.861023
1768777142868.8354,1439.5604395604394,,0,-1,1768777142.8688354
1768777142876.648,1435.8974358974358,,0,-1,1768777142.876648
1768777142884.4604,1427.8388278388277,,0,-1,1768777142.8844604
1768777142892.273,1419.7802197802198,,0,-1,1768777142.892273
1768777142900.0854,1419.047619047619,,0,-1,1768777142.9000854
1768777142907.898,1413.9194139194135,,0,-1,1768777142.907898
1768777142915.7104,1412.4542124542124,,0,-1,1768777142.9157104
1768777142923.523,1408.7912087912086,,0,-1,1768777142.923523
1768777142931.3354,1412.4542124542124,,0,-1,1768777142.9313354
1768777142939.148,1413.9194139194135,,0,-1,1768777142.939148
1768777142946.9604,1412.4542124542124,,0,-1,1768777142.9469604
1768777142954.773,1413.9194139194135,,0,-1,1768777142.954773
1768777142962.5854,1409.5238095238094,,0,-1,1768777142.9625854
1768777142970.398,1402.9304029304028,,0,-1,1768777142.970398
1768777142978.2104,1402.197802197802,,0,-1,1768777142.9782104
1768777142986.023,1397.8021978021975,,0,-1,1768777142.986023
1768777142993.8354,1394.8717948717947,,0,-1,1768777142.9938354
1768777143001.648,1389.7435897435896,,0,-1,1768777143.001648
1768777143009.4604,1378.021978021978,,0,-1,1768777143.0094604
1768777143017.273,1369.9633699633698,,0,-1,1768777143.017273
1768777143025.0854,1362.6373626373625,,0,-1,1768777143.0250854
1768777143032.898,1354.5787545787546,,0,-1,1768777143.032898
1768777143040.7104,1350.18315018315,,0,-1,1768777143.0407104
1768777143048.523,1341.3919413919414,,0,-1,1768777143.048523
1768777143056.3354,1339.194139194139,,0,-1,1768777143.0563354
1768777143064.148,1334.065934065934,,0,-1,1768777143.064148
1768777143071.9604,1330.4029304029302,,0,-1,1768777143.0719604
1768777143079.773,1329.6703296703297,,0,-1,1768777143.079773
1768777143087.5854,1334.7985347985348,,0,-1,1768777143.0875854
1768777143095.398,1334.065934065934,,0,-1,1768777143.095398
1768777143103.2104,1335.5311355311355,,0,-1,1768777143.1032104
1768777143111.023,1335.5311355311355,,0,-1,1768777143.111023
1768777143118.8354,1333.3333333333333,,0,-1,1768777143.1188354
1768777143126.648,1333.3333333333333,,0,-1,1768777143.126648
1768777143134.4604,1334.065934065934,,0,-1,1768777143.1344604
1768777143142.273,1331.8681318681315,,0,-1,1768777143.142273
1768777143150.0854,1324.5421245421244,,0,-1,1768777143.1500854
1768777143157.898,1317.9487179487178,,0,-1,1768777143.157898
1768777143165.7104,1312.8205128205127,,0,-1,1768777143.1657104
1768777143173.523,1309.89010989011,,0,-1,1768777143.173523
1768777143181.3354,1306.227106227106,,0,-1,1768777143.1813354
1768777143189.148,1300.3663003663005,,0,-1,1768777143.189148
1768777143196.9604,1298.9010989010987,,0,-1,1768777143.1969604
1768777143204.773,1298.9010989010987,,0,-1,1768777143.204773
1768777143212.5854,1293.7728937728937,,0,-1,1768777143.2125854
1768777143220.398,1295.2380952380952,,0,-1,1768777143.220398
1768777143228.2104,1298.9010989010987,,0,-1,1768777143.2282104
1768777143236.023,1304.7619047619046,,0,-1,1768777143.236023
1768777143243.8354,1306.9597069597069,,0,-1,1768777143.2438354
1768777143251.648,1309.89010989011,,0,-1,1768777143.251648
1768777143259.4604,1312.8205128205127,,0,-1,1768777143.2594604
1768777143267.273,1309.89010989011,,0,-1,1768777143.267273
1768777143275.0854,1301.8315018315018,,0,-1,1768777143.2750854
1768777143282.898,1295.2380952380952,,0,-1,1768777143.282898
1768777143290.7104,1287.9120879120878,,0,-1,1768777143.2907104
1768777143298.523,1283.5164835164835,,0,-1,1768777143.298523
1768777143306.3354,1280.5860805860805,,0,-1,1768777143.3063354
1768777143314.148,1278.3882783882782,,0,-1,1768777143.314148
1768777143321.9604,1274.7252747252746,,0,-1,1768777143.3219604
1768777143329.773,1272.5274725274724,,0,-1,1768777143.329773
1768777143337.5854,1273.260073260073,,0,-1,1768777143.3375854
1768777143345.398,1277.6556776556777,,0,-1,1768777143.345398
1768777143353.2104,1281.3186813186812,,0,-1,1768777143.3532104
1768777143361.023,1282.051282051282,,0,-1,1768777143.361023
1768777143368.8354,1279.8534798534797,,0,-1,1768777143.3688354
1768777143376.648,1277.6556776556777,,0,-1,1768777143.376648
1768777143384.4604,1278.3882783882782,,0,-1,1768777143.3844604
1768777143392.273,1280.5860805860805,,0,-1,1768777143.392273
1768777143400.0854,1279.120879120879,,0,-1,1768777143.4000854
1768777143407.898,1273.992673992674,,0,-1,1768777143.407898
1768777143415.7104,1266.6666666666663,,0,-1,1768777143.4157104
1768777143423.523,1256.4102564102564,,0,-1,1768777143.423523
1768777143431.3354,1249.084249084249,,0,-1,1768777143.4313354
1768777143439.148,1245.4212454212454,,0,-1,1768777143.439148
1768777143446.9604,1243.2234432234432,,0,-1,1768777143.4469604
1768777143454.773,1244.688644688645,,0,-1,1768777143.454773
1768777143462.5854,1248.3516483516482,,0,-1,1768777143.4625854
1768777143470.398,1254.212454212454,,0,-1,1768777143.470398
1768777143478.2104,1263.003663003663,,0,-1,1768777143.4782104
1768777143486.023,1273.992673992674,,0,-1,1768777143.486023
1768777143493.8354,1287.9120879120878,,0,-1,1768777143.4938354
1768777143501.648,1301.098901098901,,0,-1,1768777143.501648
1768777143509.4604,1315.018315018315,,0,-1,1768777143.5094604
1768777143517.273,1328.937728937729,,0,-1,1768777143.517273
1768777143525.0854,1344.3223443223442,,0,-1,1768777143.5250854
1768777143532.898,1356.7765567765566,,0,-1,1768777143.532898
1768777143540.7104,1368.4981684981683,,0,-1,1768777143.5407104
1768777143548.523,1384.6153846153843,,0,-1,1768777143.548523
1768777143556.3354,1397.069597069597,,0,-1,1768777143.5563354
1768777143564.148,1409.5238095238094,,0,-1,1768777143.564148
1768777143571.9604,1419.047619047619,,0,-1,1768777143.5719604
1768777143579.773,1421.9780219780218,,0,-1,1768777143.579773
1768777143587.5854,1420.5128205128203,,0,-1,1768777143.5875854
1768777143595.398,1416.8498168498168,,0,-1,1768777143.595398
1768777143603.2104,1412.4542124542124,,0,-1,1768777143.6032104
1768777143611.023,1408.058608058608,,0,-1,1768777143.611023
1768777143618.8354,1409.5238095238094,,0,-1,1768777143.6188354
1768777143626.648,1412.4542124542124,,0,-1,1768777143.626648
1768777143634.4604,1416.117216117216,,0,-1,1768777143.6344604
1768777143642.273,1416.117216117216,,0,-1,1768777143.642273
1768777143650.0854,1415.3846153846152,,0,-1,1768777143.6500854
1768777143657.898,1416.117216117216,,0,-1,1768777143.657898
1768777143665.7104,1416.117216117216,,0,-1,1768777143.6657104
1768777143673.523,1416.8498168498168,,0,-1,1768777143.673523
1768777143681.3354,1416.8498168498168,,0,-1,1768777143.6813354
1768777143689.148,1418.3150183150185,,0,-1,1768777143.689148
1768777143696.9604,1417.5824175824175,,0,-1,1768777143.6969604
1768777143704.773,1417.5824175824175,,0,-1,1768777143.704773
1768777143712.5854,1414.6520146520145,,0,-1,1768777143.7125854
1768777143720.398,1416.8498168498168,,0,-1,1768777143.720398
1768777143728.2104,1422.7106227106226,,0,-1,1768777143.7282104
1768777143736.023,1425.6410256410256,,0,-1,1768777143.736023
1768777143743.8354,1424.175824175824,,0,-1,1768777143.7438354
1768777143751.648,1421.245421245421,,0,-1,1768777143.751648
1768777143759.4604,1421.245421245421,,0,-1,1768777143.7594604
1768777143767.273,1419.047619047619,,0,-1,1768777143.767273
1768777143775.0854,1416.117216117216,,0,-1,1768777143.7750854
1768777143782.898,1410.989010989011,,0,-1,1768777143.782898
1768777143790.7104,1404.3956043956043,,0,-1,1768777143.7907104
1768777143798.523,1397.8021978021975,,0,-1,1768777143.798523
1768777143806.3354,1389.7435897435896,,0,-1,1768777143.8063354
1768777143814.148,1384.6153846153843,,0,-1,1768777143.814148
1768777143821.9604,1381.6849816849815,,0,-1,1768777143.8219604
1768777143829.773,1380.952380952381,,0,-1,1768777143.829773
1768777143837.5854,1379.4871794871794,,0,-1,1768777143.8375854
1768777143845.398,1377.2893772893772,,0,-1,1768777143.845398
1768777143853.2104,1376.5567765567764,,0,-1,1768777143.8532104
1768777143861.023,1375.091575091575,,0,-1,1768777143.861023
1768777143868.8354,1372.8937728937728,,0,-1,1768777143.8688354
1768777143876.648,1370.6959706959706,,0,-1,1768777143.876648
1768777143884.4604,1367.032967032967,,0,-1,1768777143.8844604
1768777143892.273,1361.904761904762,,0,-1,1768777143.892273
1768777143900.0854,1356.7765567765566,,0,-1,1768777143.9000854
1768777143907.898,1348.7179487179487,,0,-1,1768777143.907898
1768777143915.7104,1335.5311355311355,,0,-1,1768777143.9157104
1768777143923.523,1322.3443223443223,,0,-1,1768777143.923523
1768777143931.3354,1313.5531135531137,,0,-1,1768777143.9313354
1768777143939.148,1312.8205128205127,,0,-1,1768777143.939148
1768777143946.9604,1315.7509157509155,,0,-1,1768777143.9469604
1768777143954.773,1320.8791208791208,,0,-1,1768777143.954773
1768777143962.5854,1325.2747252747251,,0,-1,1768777143.9625854
1768777143970.398,1329.6703296703297,,0,-1,1768777143.970398
1768777143978.2104,1333.3333333333333,,0,-1,1768777143.9782104
1768777143986.023,1338.4615384615383,,0,-1,1768777143.986023
1768777143993.8354,1341.3919413919414,,0,-1,1768777143.9938354
1768777144001.648,1345.7875457875457,,0,-1,1768777144.001648
1768777144009.4604,1348.7179487179487,,0,-1,1768777144.0094604
1768777144017.273,1347.2527472527472,,0,-1,1768777144.017273
1768777144025.0854,1346.5201465201465,,0,-1,1768777144.0250854
1768777144032.898,1342.857142857143,,0,-1,1768777144.032898
1768777144040.7104,1336.9963369963368,,0,-1,1768777144.0407104
1768777144048.523,1328.937728937729,,0,-1,1768777144.048523
1768777144056.3354,1321.6117216117216,,0,-1,1768777144.0563354
1768777144064.148,1315.018315018315,,0,-1,1768777144.064148
1768777144071.9604,1309.89010989011,,0,-1,1768777144.0719604
1768777144079.773,1310.6227106227104,,0,-1,1768777144.079773
1768777144087.5854,1312.8205128205127,,0,-1,1768777144.0875854
1768777144095.398,1314.2857142857142,,0,-1,1768777144.095398
1768777144103.2104,1310.6227106227104,,0,-1,1768777144.1032104
1768777144111.023,1303.2967032967033,,0,-1,1768777144.111023
1768777144118.8354,1298.9010989010987,,0,-1,1768777144.1188354
1768777144126.648,1292.3076923076922,,0,-1,1768777144.126648
1768777144134.4604,1288.6446886446886,,0,-1,1768777144.1344604
1768777144142.273,1289.3772893772891,,0,-1,1768777144.142273
1768777144150.0854,1293.040293040293,,0,-1,1768777144.1500854
1768777144157.898,1297.4358974358977,,0,-1,1768777144.157898
1768777144165.7104,1301.8315018315018,,0,-1,1768777144.1657104
1768777144173.523,1306.227106227106,,0,-1,1768777144.173523
1768777144181.3354,1308.4249084249084,,0,-1,1768777144.1813354
1768777144189.148,1306.9597069597069,,0,-1,1768777144.189148
1768777144196.9604,1306.9597069597069,,0,-1,1768777144.1969604
1768777144204.773,1313.5531135531137,,0,-1,1768777144.204773
1768777144212.5854,1309.89010989011,,0,-1,1768777144.2125854
1768777144220.398,1308.4249084249084,,0,-1,1768777144.220398
1768777144228.2104,1307.6923076923076,,0,-1,1768777144.2282104
1768777144236.023,1304.7619047619046,,0,-1,1768777144.236023
1768777144243.8354,1301.098901098901,,0,-1,1768777144.2438354
1768777144251.648,1296.7032967032967,,0,-1,1768777144.251648
1768777144259.4604,1298.168498168498,,0,-1,1768777144.2594604
1768777144267.273,1295.970695970696,,0,-1,1768777144.267273
1768777144275.0854,1301.098901098901,,0,-1,1768777144.2750854
1768777144282.898,1304.0293040293038,,0,-1,1768777144.282898
1768777144290.7104,1301.8315018315018,,0,-1,1768777144.2907104
1768777144298.523,1301.098901098901,,0,-1,1768777144.298523
1768777144306.3354,1298.168498168498,,0,-1,1768777144.3063354
1768777144314.148,1295.2380952380952,,0,-1,1768777144.314148
1768777144321.9604,1296.7032967032967,,0,-1,1768777144.3219604
1768777144329.773,1294.5054945054944,,0,-1,1768777144.329773
1768777144337.5854,1296.7032967032967,,0,-1,1768777144.3375854
1768777144345.398,1298.168498168498,,0,-1,1768777144.345398
1768777144353.2104,1293.040293040293,,0,-1,1768777144.3532104
1768777144361.023,1287.9120879120878,,0,-1,1768777144.361023
1768777144368.8354,1284.2490842490845,,0,-1,1768777144.3688354
1768777144376.648,1277.6556776556777,,0,-1,1768777144.376648
1768777144384.4604,1268.8644688644688,,0,-1,1768777144.3844604
1768777144392.273,1265.2014652014652,,0,-1,1768777144.392273
1768777144400.0854,1263.003663003663,,0,-1,1768777144.4000854
1768777144407.898,1257.875457875458,,0,-1,1768777144.407898
1768777144415.7104,1257.142857142857,,0,-1,1768777144.4157104
1768777144423.523,1260.805860805861,,0,-1,1768777144.423523
1768777144431.3354,1264.4688644688645,,0,-1,1768777144.4313354
1768777144439.148,1271.7948717948716,,0,-1,1768777144.439148
1768777144446.9604,1279.8534798534797,,0,-1,1768777144.4469604
1768777144454.773,1292.3076923076922,,0,-1,1768777144.454773
1768777144462.5854,1299.6336996336995,,0,-1,1768777144.4625854
1768777144470.398,1312.8205128205127,,0,-1,1768777144.470398
1768777144478.2104,1323.076923076923,,0,-1,1768777144.4782104
1768777144486.023,1331.8681318681315,,0,-1,1768777144.486023
1768777144493.8354,1346.5201465201465,,0,-1,1768777144.4938354
1768777144501.648,1353.8461538461538,,0,-1,1768777144.501648
1768777144509.4604,1364.8351648351647,,0,-1,1768777144.5094604
1768777144517.273,1373.6263736263736,,0,-1,1768777144.517273
1768777144525.0854,1381.6849816849815,,0,-1,1768777144.5250854
1768777144532.898,1389.0109890109889,,0,-1,1768777144.532898
1768777144540.7104,1390.4761904761904,,0,-1,1768777144.5407104
1768777144548.523,1395.6043956043954,,0,-1,1768777144.548523
1768777144556.3354,1394.139194139194,,0,-1,1768777144.5563354
1768777144564.148,1394.139194139194,,0,-1,1768777144.564148
1768777144571.9604,1391.941391941392,,0,-1,1768777144.5719604
1768777144579.773,1397.069597069597,,0,-1,1768777144.579773
1768777144587.5854,1400.7326007326003,,0,-1,1768777144.5875854
1768777144595.398,1402.9304029304028,,0,-1,1768777144.595398
1768777144603.2104,1408.058608058608,,0,-1,1768777144.6032104
1768777144611.023,1408.7912087912086,,0,-1,1768777144.611023
1768777144618.8354,1410.2564102564102,,0,-1,1768777144.6188354
1768777144626.648,1402.197802197802,,0,-1,1768777144.626648
1768777144634.4604,1393.4065934065934,,0,-1,1768777144.6344604
1768777144642.273,1380.2197802197802,,0,-1,1768777144.642273
1768777144650.0854,1374.3589743589744,,0,-1,1768777144.6500854
1768777144657.898,1367.032967032967,,0,-1,1768777144.657898
1768777144665.7104,1366.3003663003662,,0,-1,1768777144.6657104
1768777144673.523,1363.3699633699632,,0,-1,1768777144.673523
1768777144681.3354,1360.4395604395604,,0,-1,1768777144.6813354
1768777144689.148,1361.1721611721612,,0,-1,1768777144.689148
1768777144696.9604,1361.904761904762,,0,-1,1768777144.6969604
1768777144704.773,1359.7069597069597,,0,-1,1768777144.704773
1768777144712.5854,1364.102564102564,,0,-1,1768777144.7125854
1768777144720.398,1366.3003663003662,,0,-1,1768777144.720398
1768777144728.2104,1368.4981684981683,,0,-1,1768777144.7282104
1768777144736.023,1371.428571428571,,0,-1,1768777144.736023
1768777144743.8354,1369.230769230769,,0,-1,1768777144.7438354
1768777144751.648,1369.230769230769,,1,3,1768777144.751648
1768777144759.4604,1372.161172161172,,1,3,1768777144.7594604
1768777144767.273,1369.230769230769,,1,3,1768777144.767273
1768777144775.0854,1368.4981684981683,,1,3,1768777144.7750854
1768777144782.898,1369.9633699633698,,1,3,1768777144.782898
1768777144790.7104,1367.7655677655678,,1,3,1768777144.7907104
1768777144798.523,1369.9633699633698,,1,3,1768777144.798523
1768777144806.3354,1366.3003663003662,,1,3,1768777144.8063354
1768777144814.148,1361.1721611721612,,1,3,1768777144.814148
1768777144821.9604,1351.6483516483515,,1,3,1768777144.8219604
1768777144829.773,1346.5201465201465,,1,3,1768777144.829773
1768777144837.5854,1342.124542124542,,1,3,1768777144.8375854
1768777144845.398,1337.7289377289376,,1,3,1768777144.845398
1768777144853.2104,1335.5311355311355,,1,3,1768777144.8532104
1768777144861.023,1337.7289377289376,,1,3,1768777144.861023
1768777144868.8354,1334.065934065934,,1,3,1768777144.8688354
1768777144876.648,1334.7985347985348,,1,3,1768777144.876648
1768777144884.4604,1336.263736263736,,1,3,1768777144.8844604
1768777144892.273,1330.4029304029302,,1,3,1768777144.892273
1768777144900.0854,1325.2747252747251,,1,3,1768777144.9000854
1768777144907.898,1320.14652014652,,1,3,1768777144.907898
1768777144915.7104,1314.2857142857142,,1,3,1768777144.9157104
1768777144923.523,1311.3553113553112,,1,3,1768777144.923523
1768777144931.3354,1308.4249084249084,,1,3,1768777144.9313354
1768777144939.148,1305.4945054945051,,1,3,1768777144.939148
1768777144946.9604,1301.8315018315018,,1,3,1768777144.9469604
1768777144954.773,1298.168498168498,,1,3,1768777144.954773
1768777144962.5854,1298.168498168498,,1,3,1768777144.9625854
1768777144970.398,1300.3663003663005,,1,3,1768777144.970398
1768777144978.2104,1304.0293040293038,,1,3,1768777144.9782104
1768777144986.023,1306.227106227106,,1,3,1768777144.986023
1768777144993.8354,1312.8205128205127,,1,3,1768777144.9938354
1768777145001.648,1317.216117216117,,1,3,1768777145.001648
1768777145009.4604,1317.216117216117,,1,3,1768777145.0094604
1768777145017.273,1316.4835164835165,,1,3,1768777145.017273
1768777145025.0854,1313.5531135531137,,1,3,1768777145.0250854
1768777145032.898,1309.1575091575091,,1,3,1768777145.032898
1768777145040.7104,1306.9597069597069,,1,3,1768777145.0407104
1768777145048.523,1305.4945054945051,,1,3,1768777145.048523
1768777145056.3354,1304.7619047619046,,1,3,1768777145.0563354
1768777145064.148,1302.5641025641023,,1,3,1768777145.064148
1768777145071.9604,1298.168498168498,,1,3,1768777145.0719604
1768777145079.773,1291.5750915750914,,1,3,1768777145.079773
1768777145087.5854,1285.7142857142856,,1,3,1768777145.0875854
1768777145095.398,1281.3186813186812,,1,3,1768777145.095398
1768777145103.2104,1283.5164835164835,,1,3,1768777145.1032104
1768777145111.023,1286.4468864468863,,1,3,1768777145.111023
1768777145118.8354,1290.8424908424909,,1,3,1768777145.1188354
1768777145126.648,1291.5750915750914,,1,3,1768777145.126648
1768777145134.4604,1291.5750915750914,,1,3,1768777145.1344604
1768777145142.273,1290.10989010989,,1,3,1768777145.142273
1768777145150.0854,1288.6446886446886,,1,3,1768777145.1500854
1768777145157.898,1290.10989010989,,1,3,1768777145.157898
1768777145165.7104,1292.3076923076922,,1,3,1768777145.1657104
1768777145173.523,1296.7032967032967,,1,3,1768777145.173523
1768777145181.3354,1304.0293040293038,,1,3,1768777145.1813354
1768777145189.148,1306.9597069597069,,1,3,1768777145.189148
1768777145196.9604,1309.89010989011,,1,3,1768777145.1969604
1768777145204.773,1312.087912087912,,1,3,1768777145.204773
1768777145212.5854,1312.087912087912,,1,3,1768777145.2125854
1768777145220.398,1309.1575091575091,,1,3,1768777145.220398
1768777145228.2104,1305.4945054945051,,1,3,1768777145.2282104
1768777145236.023,1298.168498168498,,1,3,1768777145.236023
1768777145243.8354,1292.3076923076922,,1,3,1768777145.2438354
1768777145251.648,1290.8424908424909,,1,3,1768777145.251648
1768777145259.4604,1286.4468864468863,,1,3,1768777145.2594604
1768777145267.273,1284.2490842490845,,1,3,1768777145.267273
1768777145275.0854,1281.3186813186812,,1,3,1768777145.2750854
1768777145282.898,1279.120879120879,,1,3,1768777145.282898
1768777145290.7104,1275.4578754578754,,1,3,1768777145.2907104
1768777145298.523,1268.8644688644688,,1,3,1768777145.298523
1768777145306.3354,1260.805860805861,,1,3,1768777145.3063354
1768777145314.148,1254.212454212454,,1,3,1768777145.314148
1768777145321.9604,1250.5494505494505,,1,3,1768777145.3219604
1768777145329.773,1249.084249084249,,1,3,1768777145.329773
1768777145337.5854,1252.014652014652,,1,3,1768777145.3375854
1768777145345.398,1255.6776556776556,,1,3,1768777145.345398
1768777145353.2104,1261.5384615384614,,1,3,1768777145.3532104
1768777145361.023,1268.131868131868,,1,3,1768777145.361023
1768777145368.8354,1267.3992673992673,,1,3,1768777145.3688354
1768777145376.648,1263.7362637362637,,1,3,1768777145.376648
1768777145384.4604,1261.5384615384614,,1,3,1768777145.3844604
1768777145392.273,1260.07326007326,,1,3,1768777145.392273
1768777145400.0854,1259.3406593406592,,1,3,1768777145.4000854
1768777145407.898,1258.6080586080586,,1,3,1768777145.407898
1768777145415.7104,1259.3406593406592,,1,3,1768777145.4157104
1768777145423.523,1260.07326007326,,1,3,1768777145.423523
1768777145431.3354,1263.003663003663,,1,3,1768777145.4313354
1768777145439.148,1267.3992673992673,,1,3,1768777145.439148
1768777145446.9604,1270.3296703296703,,1,3,1768777145.4469604
1768777145454.773,1275.4578754578754,,1,3,1768777145.454773
1768777145462.5854,1279.120879120879,,1,3,1768777145.4625854
1768777145470.398,1284.2490842490845,,1,3,1768777145.470398
1768777145478.2104,1290.8424908424909,,1,3,1768777145.4782104
1768777145486.023,1296.7032967032967,,1,3,1768777145.486023
1768777145493.8354,1305.4945054945051,,1,3,1768777145.4938354
1768777145501.648,1312.8205128205127,,1,3,1768777145.501648
1768777145509.4604,1320.8791208791208,,1,3,1768777145.5094604
1768777145517.273,1327.4725274725274,,1,3,1768777145.517273
1768777145525.0854,1334.065934065934,,1,3,1768777145.5250854
1768777145532.898,1339.92673992674,,1,3,1768777145.532898
1768777145540.7104,1347.2527472527472,,1,3,1768777145.5407104
1768777145548.523,1354.5787545787546,,1,3,1768777145.548523
1768777145556.3354,1362.6373626373625,,1,3,1768777145.5563354
1768777145564.148,1369.230769230769,,1,3,1768777145.564148
1768777145571.9604,1372.161172161172,,1,3,1768777145.5719604
1768777145579.773,1370.6959706959706,,1,3,1768777145.579773
1768777145587.5854,1367.7655677655678,,1,3,1768777145.5875854
1768777145595.398,1364.8351648351647,,1,3,1768777145.595398
1768777145603.2104,1364.102564102564,,1,3,1768777145.6032104
1768777145611.023,1365.5677655677655,,1,3,1768777145.611023
1768777145618.8354,1369.230769230769,,1,3,1768777145.6188354
1768777145626.648,1375.091575091575,,1,3,1768777145.626648
1768777145634.4604,1381.6849816849815,,1,3,1768777145.6344604
1768777145642.273,1390.4761904761904,,1,3,1768777145.642273
1768777145650.0854,1396.3369963369962,,1,3,1768777145.6500854
1768777145657.898,1399.2673992673992,,1,3,1768777145.657898
1768777145665.7104,1398.5347985347985,,1,3,1768777145.6657104
1768777145673.523,1395.6043956043954,,1,3,1768777145.673523
1768777145681.3354,1391.2087912087911,,1,3,1768777145.6813354
1768777145689.148,1386.080586080586,,1,3,1768777145.689148
1768777145696.9604,1382.4175824175825,,1,3,1768777145.6969604
1768777145704.773,1379.4871794871794,,1,3,1768777145.704773
1768777145712.5854,1375.8241758241757,,1,3,1768777145.7125854
1768777145720.398,1372.8937728937728,,1,3,1768777145.720398
1768777145728.2104,1369.9633699633698,,1,3,1768777145.7282104
1768777145736.023,1364.8351648351647,,1,3,1768777145.736023
1768777145743.8354,1361.904761904762,,1,3,1768777145.7438354
1768777145751.648,1359.7069597069597,,1,3,1768777145.751648
1768777145759.4604,1356.7765567765566,,1,3,1768777145.7594604
1768777145767.273,1353.113553113553,,1,3,1768777145.767273
1768777145775.0854,1347.985347985348,,1,3,1768777145.7750854
1768777145782.898,1343.5897435897434,,1,3,1768777145.782898
1768777145790.7104,1339.92673992674,,1,3,1768777145.7907104
1768777145798.523,1339.194139194139,,1,3,1768777145.798523
1768777145806.3354,1339.194139194139,,1,3,1768777145.8063354
1768777145814.148,1340.6593406593406,,1,3,1768777145.814148
1768777145821.9604,1342.857142857143,,1,3,1768777145.8219604
1768777145829.773,1347.985347985348,,1,3,1768777145.829773
1768777145837.5854,1355.311355311355,,1,3,1768777145.8375854
1768777145845.398,1357.5091575091574,,1,3,1768777145.845398
1768777145853.2104,1358.974358974359,,1,3,1768777145.8532104
1768777145861.023,1360.4395604395604,,1,3,1768777145.861023
1768777145868.8354,1365.5677655677655,,1,3,1768777145.8688354
1768777145876.648,1370.6959706959706,,1,3,1768777145.876648
1768777145884.4604,1376.5567765567764,,1,3,1768777145.8844604
1768777145892.273,1380.2197802197802,,1,3,1768777145.892273
1768777145900.0854,1380.952380952381,,1,3,1768777145.9000854
1768777145907.898,1381.6849816849815,,1,3,1768777145.907898
1768777145915.7104,1382.4175824175825,,1,3,1768777145.9157104
1768777145923.523,1377.2893772893772,,1,3,1768777145.923523
1768777145931.3354,1369.230769230769,,1,3,1768777145.9313354
1768777145939.148,1358.974358974359,,1,3,1768777145.939148
1768777145946.9604,1348.7179487179487,,1,3,1768777145.9469604
1768777145954.773,1338.4615384615383,,1,3,1768777145.954773
1768777145962.5854,1328.937728937729,,1,3,1768777145.9625854
1768777145970.398,1320.8791208791208,,1,3,1768777145.970398
1768777145978.2104,1314.2857142857142,,1,3,1768777145.9782104
1768777145986.023,1310.6227106227104,,1,3,1768777145.986023
1768777145993.8354,1314.2857142857142,,1,3,1768777145.9938354
1768777146001.648,1316.4835164835165,,1,3,1768777146.001648
1768777146009.4604,1315.018315018315,,1,3,1768777146.0094604
1768777146017.273,1317.216117216117,,1,3,1768777146.017273
1768777146025.0854,1320.8791208791208,,1,3,1768777146.0250854
1768777146032.898,1326.007326007326,,1,3,1768777146.032898
1768777146040.7104,1331.135531135531,,1,3,1768777146.0407104
1768777146048.523,1335.5311355311355,,1,3,1768777146.048523
1768777146056.3354,1339.92673992674,,1,3,1768777146.0563354
1768777146064.148,1344.3223443223442,,1,3,1768777146.064148
1768777146071.9604,1345.7875457875457,,1,3,1768777146.0719604
1768777146079.773,1339.92673992674,,1,3,1768777146.079773
1768777146087.5854,1331.135531135531,,1,3,1768777146.0875854
1768777146095.398,1329.6703296703297,,1,3,1768777146.095398
1768777146103.2104,1326.739926739927,,1,3,1768777146.1032104
1768777146111.023,1321.6117216117216,,1,3,1768777146.111023
1768777146118.8354,1319.4139194139193,,1,3,1768777146.1188354
1768777146126.648,1315.7509157509155,,1,3,1768777146.126648
1768777146134.4604,1313.5531135531137,,1,3,1768777146.1344604
1768777146142.273,1311.3553113553112,,1,3,1768777146.142273
1768777146150.0854,1306.227106227106,,1,3,1768777146.1500854
1768777146157.898,1305.4945054945051,,1,3,1768777146.157898
1768777146165.7104,1304.0293040293038,,1,3,1768777146.1657104
1768777146173.523,1299.6336996336995,,1,3,1768777146.173523
1768777146181.3354,1295.970695970696,,1,3,1768777146.1813354
1768777146189.148,1288.6446886446886,,1,3,1768777146.189148
1768777146196.9604,1282.7838827838827,,1,3,1768777146.1969604
1768777146204.773,1281.3186813186812,,1,3,1768777146.204773
1768777146212.5854,1276.190476190476,,1,3,1768777146.2125854
1768777146220.398,1272.5274725274724,,1,3,1768777146.220398
1768777146228.2104,1272.5274725274724,,1,3,1768777146.2282104
1768777146236.023,1272.5274725274724,,1,3,1768777146.236023
1768777146243.8354,1272.5274725274724,,1,3,1768777146.2438354
1768777146251.648,1274.7252747252746,,1,3,1768777146.251648
1768777146259.4604,1281.3186813186812,,1,3,1768777146.2594604
1768777146267.273,1283.5164835164835,,1,3,1768777146.267273
1768777146275.0854,1282.051282051282,,1,3,1768777146.2750854
1768777146282.898,1278.3882783882782,,1,3,1768777146.282898
1768777146290.7104,1273.992673992674,,1,3,1768777146.2907104
1768777146298.523,1265.9340659340658,,1,3,1768777146.298523
1768777146306.3354,1263.003663003663,,1,3,1768777146.3063354
1768777146314.148,1265.9340659340658,,1,3,1768777146.314148
1768777146321.9604,1265.9340659340658,,1,3,1768777146.3219604
1768777146329.773,1265.9340659340658,,1,3,1768777146.329773
1768777146337.5854,1265.9340659340658,,1,3,1768777146.3375854
1768777146345.398,1267.3992673992673,,1,3,1768777146.345398
1768777146353.2104,1266.6666666666663,,1,3,1768777146.3532104
1768777146361.023,1261.5384615384614,,1,3,1768777146.361023
1768777146368.8354,1260.805860805861,,1,3,1768777146.3688354
1768777146376.648,1258.6080586080586,,1,3,1768777146.376648
1768777146384.4604,1257.142857142857,,1,3,1768777146.3844604
1768777146392.273,1263.003663003663,,1,3,1768777146.392273
1768777146400.0854,1269.5970695970695,,1,3,1768777146.4000854
1768777146407.898,1280.5860805860805,,1,3,1768777146.407898
1768777146415.7104,1295.970695970696,,1,3,1768777146.4157104
1768777146423.523,1307.6923076923076,,1,3,1768777146.423523
1768777146431.3354,1322.3443223443223,,1,3,1768777146.4313354
1768777146439.148,1329.6703296703297,,1,3,1768777146.439148
1768777146446.9604,1334.065934065934,,1,3,1768777146.4469604
1768777146454.773,1342.857142857143,,1,3,1768777146.454773
1768777146462.5854,1351.6483516483515,,1,3,1768777146.4625854
1768777146470.398,1356.043956043956,,1,3,1768777146.470398
1768777146478.2104,1363.3699633699632,,1,3,1768777146.4782104
1768777146486.023,1361.904761904762,,1,3,1768777146.486023
1768777146493.8354,1360.4395604395604,,1,3,1768777146.4938354
1768777146501.648,1356.043956043956,,1,3,1768777146.501648
1768777146509.4604,1355.311355311355,,1,3,1768777146.5094604
1768777146517.273,1352.3809523809523,,1,3,1768777146.517273
1768777146525.0854,1350.18315018315,,1,3,1768777146.5250854
1768777146532.898,1347.2527472527472,,1,3,1768777146.532898
1768777146540.7104,1342.857142857143,,1,3,1768777146.5407104
1768777146548.523,1342.857142857143,,1,3,1768777146.548523
1768777146556.3354,1339.194139194139,,1,3,1768777146.5563354
1768777146564.148,1341.3919413919414,,1,3,1768777146.564148
1768777146571.9604,1346.5201465201465,,1,3,1768777146.5719604
1768777146579.773,1346.5201465201465,,1,3,1768777146.579773
1768777146587.5854,1349.4505494505493,,1,3,1768777146.5875854
1768777146595.398,1350.9157509157508,,1,3,1768777146.595398
1768777146603.2104,1353.113553113553,,1,3,1768777146.6032104
1768777146611.023,1358.974358974359,,1,3,1768777146.611023
1768777146618.8354,1361.904761904762,,1,3,1768777146.6188354
1768777146626.648,1368.4981684981683,,1,3,1768777146.626648
1768777146634.4604,1371.428571428571,,1,3,1768777146.6344604
1768777146642.273,1374.3589743589744,,1,3,1768777146.642273
1768777146650.0854,1375.8241758241757,,1,3,1768777146.6500854
1768777146657.898,1379.4871794871794,,1,3,1768777146.657898
1768777146665.7104,1375.8241758241757,,1,3,1768777146.6657104
1768777146673.523,1376.5567765567764,,1,3,1768777146.673523
1768777146681.3354,1373.6263736263736,,1,3,1768777146.6813354
1768777146689.148,1376.5567765567764,,1,3,1768777146.689148
1768777146696.9604,1372.161172161172,,1,3,1768777146.6969604
1768777146704.773,1371.428571428571,,1,3,1768777146.704773
1768777146712.5854,1367.032967032967,,1,3,1768777146.7125854
1768777146720.398,1363.3699633699632,,1,3,1768777146.720398
1768777146728.2104,1361.904761904762,,1,3,1768777146.7282104
1768777146736.023,1356.043956043956,,1,3,1768777146.736023
1768777146743.8354,1356.043956043956,,1,3,1768777146.7438354
1768777146751.648,1353.113553113553,,1,3,1768777146.751648
1768777146759.4604,1356.7765567765566,,1,3,1768777146.7594604
1768777146767.273,1357.5091575091574,,1,3,1768777146.767273
1768777146775.0854,1364.102564102564,,1,3,1768777146.7750854
1768777146782.898,1364.102564102564,,1,3,1768777146.782898
1768777146790.7104,1361.904761904762,,1,3,1768777146.7907104
1768777146798.523,1354.5787545787546,,1,3,1768777146.798523
1768777146806.3354,1347.985347985348,,1,3,1768777146.8063354
1768777146814.148,1339.194139194139,,1,3,1768777146.814148
1768777146821.9604,1323.8095238095236,,1,3,1768777146.8219604
1768777146829.773,1318.6813186813183,,1,3,1768777146.829773
1768777146837.5854,1319.4139194139193,,1,3,1768777146.8375854
1768777146845.398,1322.3443223443223,,1,3,1768777146.845398
1768777146853.2104,1326.007326007326,,1,3,1768777146.8532104
1768777146861.023,1330.4029304029302,,1,3,1768777146.861023
1768777146868.8354,1334.065934065934,,1,3,1768777146.8688354
1768777146876.648,1337.7289377289376,,1,3,1768777146.876648
1768777146884.4604,1342.857142857143,,1,3,1768777146.8844604
1768777146892.273,1346.5201465201465,,1,3,1768777146.892273
1768777146900.0854,1345.054945054945,,1,3,1768777146.9000854
1768777146907.898,1338.4615384615383,,1,3,1768777146.907898
1768777146915.7104,1334.7985347985348,,1,3,1768777146.9157104
1768777146923.523,1331.8681318681315,,1,3,1768777146.923523
1768777146931.3354,1325.2747252747251,,1,3,1768777146.9313354
1768777146939.148,1319.4139194139193,,1,3,1768777146.939148
1768777146946.9604,1308.4249084249084,,1,3,1768777146.9469604
1768777146954.773,1303.2967032967033,,1,3,1768777146.954773
1768777146962.5854,1298.168498168498,,1,3,1768777146.9625854
1768777146970.398,1294.5054945054944,,1,3,1768777146.970398
1768777146978.2104,1299.6336996336995,,1,3,1768777146.9782104
1768777146986.023,1301.098901098901,,1,3,1768777146.986023
1768777146993.8354,1304.7619047619046,,1,3,1768777146.9938354
1768777147001.648,1312.8205128205127,,1,3,1768777147.001648
1768777147009.4604,1319.4139194139193,,1,3,1768777147.0094604
1768777147017.273,1319.4139194139193,,1,3,1768777147.017273
1768777147025.0854,1320.14652014652,,1,3,1768777147.0250854
1768777147032.898,1317.9487179487178,,1,3,1768777147.032898
1768777147040.7104,1314.2857142857142,,1,3,1768777147.0407104
1768777147048.523,1315.018315018315,,1,3,1768777147.048523
1768777147056.3354,1315.018315018315,,1,3,1768777147.0563354
1768777147064.148,1312.087912087912,,1,3,1768777147.064148
1768777147071.9604,1308.4249084249084,,1,3,1768777147.0719604
1768777147079.773,1306.227106227106,,1,3,1768777147.079773
1768777147087.5854,1304.7619047619046,,1,3,1768777147.0875854
1768777147095.398,1304.7619047619046,,1,3,1768777147.095398
1768777147103.2104,1306.227106227106,,1,3,1768777147.1032104
1768777147111.023,1310.6227106227104,,1,3,1768777147.111023
1768777147118.8354,1315.018315018315,,1,3,1768777147.1188354
1768777147126.648,1314.2857142857142,,1,3,1768777147.126648
1768777147134.4604,1313.5531135531137,,1,3,1768777147.1344604
1768777147142.273,1312.8205128205127,,1,3,1768777147.142273
1768777147150.0854,1315.018315018315,,1,3,1768777147.1500854
1768777147157.898,1313.5531135531137,,1,3,1768777147.157898
1768777147165.7104,1313.5531135531137,,1,3,1768777147.1657104
1768777147173.523,1315.7509157509155,,1,3,1768777147.173523
1768777147181.3354,1316.4835164835165,,1,3,1768777147.1813354
1768777147189.148,1314.2857142857142,,1,3,1768777147.189148
1768777147196.9604,1308.4249084249084,,1,3,1768777147.1969604
1768777147204.773,1301.098901098901,,1,3,1768777147.204773
1768777147212.5854,1294.5054945054944,,1,3,1768777147.2125854
1768777147220.398,1293.7728937728937,,1,3,1768777147.220398
1768777147228.2104,1288.6446886446886,,1,3,1768777147.2282104
1768777147236.023,1284.9816849816848,,1,3,1768777147.236023
1768777147243.8354,1283.5164835164835,,1,3,1768777147.2438354
1768777147251.648,1284.2490842490845,,1,3,1768777147.251648
1768777147259.4604,1287.179487179487,,1,3,1768777147.2594604
1768777147267.273,1290.10989010989,,1,3,1768777147.267273
1768777147275.0854,1295.2380952380952,,1,3,1768777147.2750854
1768777147282.898,1305.4945054945051,,1,3,1768777147.282898
1768777147290.7104,1317.216117216117,,1,3,1768777147.2907104
1768777147298.523,1328.2051282051282,,1,3,1768777147.298523
1768777147306.3354,1338.4615384615383,,1,3,1768777147.3063354
1768777147314.148,1348.7179487179487,,1,3,1768777147.314148
1768777147321.9604,1357.5091575091574,,1,3,1768777147.3219604
1768777147329.773,1367.032967032967,,1,3,1768777147.329773
1768777147337.5854,1377.2893772893772,,1,3,1768777147.3375854
1768777147345.398,1389.7435897435896,,1,3,1768777147.345398
1768777147353.2104,1401.4652014652013,,1,3,1768777147.3532104
1768777147361.023,1410.989010989011,,1,3,1768777147.361023
1768777147368.8354,1413.9194139194135,,1,3,1768777147.3688354
1768777147376.648,1411.7216117216117,,1,3,1768777147.376648
1768777147384.4604,1406.5934065934066,,1,3,1768777147.3844604
1768777147392.273,1395.6043956043954,,1,3,1768777147.392273
1768777147400.0854,1382.4175824175825,,1,3,1768777147.4000854
1768777147407.898,1370.6959706959706,,1,3,1768777147.407898
1768777147415.7104,1360.4395604395604,,1,3,1768777147.4157104
1768777147423.523,1350.9157509157508,,1,3,1768777147.423523
1768777147431.3354,1344.3223443223442,,1,3,1768777147.4313354
1768777147439.148,1340.6593406593406,,1,3,1768777147.439148
1768777147446.9604,1331.8681318681315,,1,3,1768777147.4469604
1768777147454.773,1323.076923076923,,1,3,1768777147.454773
