Shimmer_6815_Timestamp_Unix_CAL,Shimmer_6815_PPG_A13_CAL,Unnamed: 2,inhale,inhale_id,epoch_sec
1768778792494.995,70.32967032967032,,0,-1,1768778792.494995
1768778792502.8076,226.3736263736264,,0,-1,1768778792.5028076
1768778792510.62,421.2454212454212,,0,-1,1768778792.51062
1768778792518.4326,616.8498168498168,,0,-1,1768778792.5184326
1768778792526.245,808.7912087912088,,0,-1,1768778792.526245
1768778792534.0576,987.5457875457874,,0,-1,1768778792.5340576
1768778792541.87,1142.124542124542,,0,-1,1768778792.54187
1768778792549.6826,1279.120879120879,,0,-1,1768778792.5496826
1768778792557.495,1391.941391941392,,0,-1,1768778792.557495
1768778792565.3076,1487.179487179487,,0,-1,1768778792.5653076
1768778792573.12,1569.230769230769,,0,-1,1768778792.57312
1768778792580.9326,1632.2344322344322,,0,-1,1768778792.5809326
1768778792588.745,1683.5164835164835,,0,-1,1768778792.588745
1768778792596.5576,1720.8791208791208,,0,-1,1768778792.5965576
1768778792604.37,1742.857142857143,,0,-1,1768778792.60437
1768778792612.1826,1753.113553113553,,0,-1,1768778792.6121826
1768778792619.995,1754.5787545787546,,0,-1,1768778792.619995
1768778792627.8076,1752.3809523809523,,0,-1,1768778792.6278076
1768778792635.62,1745.7875457875457,,0,-1,1768778792.63562
1768778792643.4326,1734.7985347985348,,0,-1,1768778792.6434326
1768778792651.245,1717.9487179487178,,0,-1,1768778792.651245
1768778792659.0576,1696.7032967032967,,0,-1,1768778792.6590576
1768778792666.87,1673.260073260073,,0,-1,1768778792.66687
1768778792674.6826,1648.3516483516482,,0,-1,1768778792.6746826
1768778792682.495,1620.5128205128203,,0,-1,1768778792.682495
1768778792690.3076,1588.278388278388,,0,-1,1768778792.6903076
1768778792698.12,1551.6483516483515,,0,-1,1768778792.69812
1768778792705.9326,1515.018315018315,,0,-1,1768778792.7059326
1768778792713.745,1483.5164835164835,,0,-1,1768778792.713745
1768778792721.5576,1459.3406593406592,,0,-1,1768778792.7215576
1768778792729.37,1436.6300366300366,,0,-1,1768778792.72937
1768778792737.1826,1419.047619047619,,0,-1,1768778792.7371826
1768778792744.995,1400.7326007326003,,0,-1,1768778792.744995
1768778792752.8076,1383.8827838827838,,0,-1,1768778792.7528076
1768778792760.62,1366.3003663003662,,0,-1,1768778792.76062
1768778792768.4326,1351.6483516483515,,0,-1,1768778792.7684326
1768778792776.245,1342.857142857143,,0,-1,1768778792.776245
1768778792784.0576,1338.4615384615383,,0,-1,1768778792.7840576
1768778792791.87,1334.7985347985348,,0,-1,1768778792.79187
1768778792799.6826,1336.9963369963368,,0,-1,1768778792.7996826
1768778792807.495,1342.124542124542,,0,-1,1768778792.807495
1768778792815.3076,1345.7875457875457,,0,-1,1768778792.8153076
1768778792823.12,1344.3223443223442,,0,-1,1768778792.82312
1768778792830.9326,1339.194139194139,,0,-1,1768778792.8309326
1768778792838.745,1332.6007326007325,,0,-1,1768778792.838745
1768778792846.5576,1322.3443223443223,,0,-1,1768778792.8465576
1768778792854.37,1305.4945054945051,,0,-1,1768778792.85437
1768778792862.1826,1289.3772893772891,,0,-1,1768778792.8621826
1768778792869.995,1272.5274725274724,,0,-1,1768778792.869995
1768778792877.8076,1251.2820512820513,,0,-1,1768778792.8778076
1768778792885.62,1226.3736263736264,,0,-1,1768778792.88562
1768778792893.4326,1207.3260073260074,,0,-1,1768778792.8934326
1768778792901.245,1189.7435897435896,,0,-1,1768778792.901245
1768778792909.0576,1179.4871794871794,,0,-1,1768778792.9090576
1768778792916.87,1176.5567765567764,,0,-1,1768778792.91687
1768778792924.6826,1175.8241758241757,,0,-1,1768778792.9246826
1768778792932.495,1171.428571428571,,0,-1,1768778792.932495
1768778792940.3076,1169.230769230769,,0,-1,1768778792.9403076
1768778792948.12,1167.7655677655678,,0,-1,1768778792.94812
1768778792955.9326,1160.4395604395604,,0,-1,1768778792.9559326
1768778792963.745,1153.113553113553,,0,-1,1768778792.963745
1768778792971.5576,1148.7179487179487,,0,-1,1768778792.9715576
1768778792979.37,1143.5897435897434,,0,-1,1768778792.97937
1768778792987.1826,1137.7289377289376,,0,-1,1768778792.9871826
1768778792994.995,1128.937728937729,,0,-1,1768778792.994995
1768778793002.8076,1122.3443223443223,,0,-1,1768778793.0028076
1768778793010.62,1116.4835164835165,,0,-1,1768778793.01062
1768778793018.4326,1111.3553113553112,,0,-1,1768778793.0184326
1768778793026.245,1106.9597069597069,,0,-1,1768778793.026245
1768778793034.0576,1104.7619047619046,,0,-1,1768778793.0340576
1768778793041.87,1101.8315018315018,,0,-1,1768778793.04187
1768778793049.6826,1100.3663003663005,,0,-1,1768778793.0496826
1768778793057.495,1100.3663003663005,,0,-1,1768778793.057495
1768778793065.3076,1100.3663003663005,,0,-1,1768778793.0653076
1768778793073.12,1097.4358974358977,,0,-1,1768778793.07312
1768778793080.9326,1096.7032967032967,,0,-1,1768778793.0809326
1768778793088.745,1096.7032967032967,,0,-1,1768778793.088745
1768778793096.5576,1090.8424908424909,,0,-1,1768778793.0965576
1768778793104.37,1086.4468864468863,,0,-1,1768778793.10437
1768778793112.1826,1083.5164835164835,,0,-1,1768778793.1121826
1768778793119.995,1082.051282051282,,0,-1,1768778793.119995
1768778793127.8076,1079.120879120879,,0,-1,1768778793.1278076
1768778793135.62,1076.923076923077,,0,-1,1768778793.13562
1768778793143.4326,1076.190476190476,,0,-1,1768778793.1434326
1768778793151.245,1077.6556776556777,,0,-1,1768778793.151245
1768778793159.0576,1076.923076923077,,0,-1,1768778793.1590576
1768778793166.87,1071.7948717948718,,0,-1,1768778793.16687
1768778793174.6826,1065.2014652014652,,0,-1,1768778793.1746826
1768778793182.495,1061.5384615384614,,0,-1,1768778793.182495
1768778793190.3076,1055.6776556776556,,0,-1,1768778793.1903076
1768778793198.12,1048.3516483516482,,0,-1,1768778793.19812
1768778793205.9326,1038.8278388278388,,0,-1,1768778793.2059326
1768778793213.745,1028.5714285714284,,0,-1,1768778793.213745
1768778793221.5576,1021.2454212454212,,0,-1,1768778793.2215576
1768778793229.37,1019.0476190476188,,0,-1,1768778793.22937
1768778793237.1826,1018.3150183150184,,0,-1,1768778793.2371826
1768778793244.995,1016.8498168498168,,0,-1,1768778793.244995
1768778793252.8076,1018.3150183150184,,0,-1,1768778793.2528076
1768778793260.62,1021.978021978022,,0,-1,1768778793.26062
1768778793268.4326,1026.3736263736264,,0,-1,1768778793.2684326
1768778793276.245,1030.7692307692307,,0,-1,1768778793.276245
1768778793284.0576,1036.6300366300366,,0,-1,1768778793.2840576
1768778793291.87,1040.29304029304,,0,-1,1768778793.29187
1768778793299.6826,1043.956043956044,,0,-1,1768778793.2996826
1768778793307.495,1045.4212454212454,,0,-1,1768778793.307495
1768778793315.3076,1046.1538461538462,,0,-1,1768778793.3153076
1768778793323.12,1046.8864468864467,,0,-1,1768778793.32312
1768778793330.9326,1047.6190476190477,,0,-1,1768778793.3309326
1768778793338.745,1051.2820512820513,,0,-1,1768778793.338745
1768778793346.5576,1057.142857142857,,0,-1,1768778793.3465576
1768778793354.37,1056.4102564102564,,0,-1,1768778793.35437
1768778793362.1826,1051.2820512820513,,0,-1,1768778793.3621826
1768778793369.995,1044.688644688645,,0,-1,1768778793.369995
1768778793377.8076,1035.164835164835,,0,-1,1768778793.3778076
1768778793385.62,1025.6410256410256,,0,-1,1768778793.38562
1768778793393.4326,1019.0476190476188,,0,-1,1768778793.3934326
1768778793401.245,1014.6520146520146,,0,-1,1768778793.401245
1768778793409.0576,1014.6520146520146,,0,-1,1768778793.4090576
1768778793416.87,1019.0476190476188,,0,-1,1768778793.41687
1768778793424.6826,1024.175824175824,,0,-1,1768778793.4246826
1768778793432.495,1027.106227106227,,0,-1,1768778793.432495
1768778793440.3076,1027.8388278388277,,0,-1,1768778793.4403076
1768778793448.12,1028.5714285714284,,0,-1,1768778793.44812
1768778793455.9326,1028.5714285714284,,0,-1,1768778793.4559326
1768778793463.745,1030.03663003663,,0,-1,1768778793.463745
1768778793471.5576,1035.8974358974358,,0,-1,1768778793.4715576
1768778793479.37,1046.8864468864467,,0,-1,1768778793.47937
1768778793487.1826,1065.9340659340658,,0,-1,1768778793.4871826
1768778793494.995,1090.10989010989,,0,-1,1768778793.494995
1768778793502.8076,1118.6813186813183,,0,-1,1768778793.5028076
1768778793510.62,1157.5091575091574,,0,-1,1768778793.51062
1768778793518.4326,1208.7912087912086,,0,-1,1768778793.5184326
1768778793526.245,1273.260073260073,,0,-1,1768778793.526245
1768778793534.0576,1349.4505494505493,,0,-1,1768778793.5340576
1768778793541.87,1435.164835164835,,0,-1,1768778793.54187
1768778793549.6826,1521.6117216117216,,0,-1,1768778793.5496826
1768778793557.495,1607.3260073260071,,0,-1,1768778793.557495
1768778793565.3076,1687.179487179487,,0,-1,1768778793.5653076
1768778793573.12,1761.172161172161,,0,-1,1768778793.57312
1768778793580.9326,1824.175824175824,,0,-1,1768778793.5809326
1768778793588.745,1876.190476190476,,0,-1,1768778793.588745
1768778793596.5576,1915.018315018315,,0,-1,1768778793.5965576
1768778793604.37,1945.054945054945,,0,-1,1768778793.60437
1768778793612.1826,1964.8351648351647,,0,-1,1768778793.6121826
1768778793619.995,1979.4871794871797,,0,-1,1768778793.619995
1768778793627.8076,1986.8131868131863,,0,-1,1768778793.6278076
1768778793635.62,1988.278388278388,,0,-1,1768778793.63562
1768778793643.4326,1984.6153846153843,,0,-1,1768778793.6434326
1768778793651.245,1976.5567765567764,,0,-1,1768778793.651245
1768778793659.0576,1962.6373626373625,,0,-1,1768778793.6590576
1768778793666.87,1942.857142857143,,0,-1,1768778793.66687
1768778793674.6826,1918.6813186813183,,0,-1,1768778793.6746826
1768778793682.495,1895.970695970696,,0,-1,1768778793.682495
1768778793690.3076,1871.794871794872,,0,-1,1768778793.6903076
1768778793698.12,1848.351648351648,,0,-1,1768778793.69812
1768778793705.9326,1827.838827838828,,0,-1,1768778793.7059326
1768778793713.745,1811.721611721612,,0,-1,1768778793.713745
1768778793721.5576,1796.3369963369962,,0,-1,1768778793.7215576
1768778793729.37,1779.4871794871794,,0,-1,1768778793.72937
1768778793737.1826,1759.7069597069597,,0,-1,1768778793.7371826
1768778793744.995,1734.065934065934,,0,-1,1768778793.744995
1768778793752.8076,1703.296703296703,,0,-1,1768778793.7528076
1768778793760.62,1664.4688644688645,,0,-1,1768778793.76062
1768778793768.4326,1619.047619047619,,0,-1,1768778793.7684326
1768778793776.245,1575.091575091575,,0,-1,1768778793.776245
1768778793784.0576,1542.857142857143,,0,-1,1768778793.7840576
1768778793791.87,1515.7509157509155,,0,-1,1768778793.79187
1768778793799.6826,1493.040293040293,,0,-1,1768778793.7996826
1768778793807.495,1478.3882783882782,,0,-1,1768778793.807495
1768778793815.3076,1471.062271062271,,0,-1,1768778793.8153076
1768778793823.12,1463.003663003663,,0,-1,1768778793.82312
1768778793830.9326,1456.4102564102564,,0,-1,1768778793.8309326
1768778793838.745,1454.212454212454,,0,-1,1768778793.838745
1768778793846.5576,1448.3516483516482,,0,-1,1768778793.8465576
1768778793854.37,1444.688644688645,,0,-1,1768778793.85437
1768778793862.1826,1443.956043956044,,0,-1,1768778793.8621826
1768778793869.995,1439.5604395604394,,0,-1,1768778793.869995
1768778793877.8076,1437.362637362637,,0,-1,1768778793.8778076
1768778793885.62,1438.095238095238,,0,-1,1768778793.88562
1768778793893.4326,1435.8974358974358,,0,-1,1768778793.8934326
1768778793901.245,1425.6410256410256,,0,-1,1768778793.901245
1768778793909.0576,1416.117216117216,,0,-1,1768778793.9090576
1768778793916.87,1400.7326007326003,,0,-1,1768778793.91687
1768778793924.6826,1388.278388278388,,0,-1,1768778793.9246826
1768778793932.495,1377.2893772893772,,0,-1,1768778793.932495
1768778793940.3076,1363.3699633699632,,0,-1,1768778793.9403076
1768778793948.12,1349.4505494505493,,0,-1,1768778793.94812
1768778793955.9326,1334.7985347985348,,0,-1,1768778793.9559326
1768778793963.745,1316.4835164835165,,0,-1,1768778793.963745
1768778793971.5576,1296.7032967032967,,0,-1,1768778793.9715576
1768778793979.37,1282.7838827838827,,0,-1,1768778793.97937
1768778793987.1826,1271.062271062271,,0,-1,1768778793.9871826
1768778793994.995,1257.142857142857,,0,-1,1768778793.994995
1768778794002.8076,1249.084249084249,,0,-1,1768778794.0028076
1768778794010.62,1243.956043956044,,0,-1,1768778794.01062
1768778794018.4326,1232.967032967033,,0,-1,1768778794.0184326
1768778794026.245,1219.7802197802198,,0,-1,1768778794.026245
1768778794034.0576,1209.5238095238094,,0,-1,1768778794.0340576
1768778794041.87,1194.8717948717947,,0,-1,1768778794.04187
1768778794049.6826,1179.4871794871794,,0,-1,1768778794.0496826
1768778794057.495,1169.230769230769,,0,-1,1768778794.057495
1768778794065.3076,1165.5677655677655,,0,-1,1768778794.0653076
1768778794073.12,1162.6373626373625,,0,-1,1768778794.07312
1768778794080.9326,1158.241758241758,,0,-1,1768778794.0809326
1768778794088.745,1158.241758241758,,0,-1,1768778794.088745
1768778794096.5576,1156.043956043956,,0,-1,1768778794.0965576
1768778794104.37,1151.6483516483515,,0,-1,1768778794.10437
1768778794112.1826,1151.6483516483515,,0,-1,1768778794.1121826
1768778794119.995,1147.985347985348,,0,-1,1768778794.119995
1768778794127.8076,1144.3223443223442,,0,-1,1768778794.1278076
1768778794135.62,1143.5897435897434,,0,-1,1768778794.13562
1768778794143.4326,1139.194139194139,,0,-1,1768778794.1434326
1768778794151.245,1130.4029304029302,,0,-1,1768778794.151245
1768778794159.0576,1124.5421245421244,,0,-1,1768778794.1590576
1768778794166.87,1117.2161172161173,,0,-1,1768778794.16687
1768778794174.6826,1105.4945054945051,,0,-1,1768778794.1746826
1768778794182.495,1100.3663003663005,,0,-1,1768778794.182495
1768778794190.3076,1094.5054945054944,,0,-1,1768778794.1903076
1768778794198.12,1094.5054945054944,,0,-1,1768778794.19812
1768778794205.9326,1099.6336996336995,,0,-1,1768778794.2059326
1768778794213.745,1101.098901098901,,0,-1,1768778794.213745
1768778794221.5576,1107.6923076923076,,0,-1,1768778794.2215576
1768778794229.37,1108.4249084249084,,0,-1,1768778794.22937
1768778794237.1826,1109.1575091575091,,0,-1,1768778794.2371826
1768778794244.995,1107.6923076923076,,0,-1,1768778794.244995
1768778794252.8076,1099.6336996336995,,0,-1,1768778794.2528076
1768778794260.62,1095.970695970696,,0,-1,1768778794.26062
1768778794268.4326,1096.7032967032967,,0,-1,1768778794.2684326
1768778794276.245,1095.970695970696,,0,-1,1768778794.276245
1768778794284.0576,1101.8315018315018,,0,-1,1768778794.2840576
1768778794291.87,1106.227106227106,,0,-1,1768778794.29187
1768778794299.6826,1109.89010989011,,0,-1,1768778794.2996826
1768778794307.495,1109.89010989011,,0,-1,1768778794.307495
1768778794315.3076,1109.1575091575091,,0,-1,1768778794.3153076
1768778794323.12,1106.9597069597069,,0,-1,1768778794.32312
1768778794330.9326,1106.9597069597069,,0,-1,1768778794.3309326
1768778794338.745,1109.1575091575091,,0,-1,1768778794.338745
1768778794346.5576,1112.8205128205127,,0,-1,1768778794.3465576
1768778794354.37,1114.2857142857142,,0,-1,1768778794.35437
1768778794362.1826,1115.7509157509155,,0,-1,1768778794.3621826
1768778794369.995,1109.89010989011,,0,-1,1768778794.369995
1768778794377.8076,1106.9597069597069,,0,-1,1768778794.3778076
1768778794385.62,1098.168498168498,,0,-1,1768778794.38562
1768778794393.4326,1097.4358974358977,,0,-1,1768778794.3934326
1768778794401.245,1095.2380952380952,,0,-1,1768778794.401245
1768778794409.0576,1099.6336996336995,,0,-1,1768778794.4090576
1768778794416.87,1104.029304029304,,0,-1,1768778794.41687
1768778794424.6826,1104.7619047619046,,0,-1,1768778794.4246826
1768778794432.495,1108.4249084249084,,0,-1,1768778794.432495
1768778794440.3076,1106.227106227106,,0,-1,1768778794.4403076
1768778794448.12,1098.9010989010987,,0,-1,1768778794.44812
1768778794455.9326,1090.10989010989,,0,-1,1768778794.4559326
1768778794463.745,1082.051282051282,,0,-1,1768778794.463745
1768778794471.5576,1078.3882783882784,,0,-1,1768778794.4715576
1768778794479.37,1073.260073260073,,0,-1,1768778794.47937
1768778794487.1826,1067.3992673992673,,0,-1,1768778794.4871826
1768778794494.995,1066.6666666666663,,0,-1,1768778794.494995
1768778794502.8076,1069.5970695970695,,0,-1,1768778794.5028076
1768778794510.62,1073.260073260073,,0,-1,1768778794.51062
1768778794518.4326,1075.4578754578754,,0,-1,1768778794.5184326
1768778794526.245,1074.7252747252746,,0,-1,1768778794.526245
1768778794534.0576,1070.3296703296703,,0,-1,1768778794.5340576
1768778794541.87,1065.2014652014652,,0,-1,1768778794.54187
1768778794549.6826,1060.805860805861,,0,-1,1768778794.5496826
1768778794557.495,1060.07326007326,,0,-1,1768778794.557495
1768778794565.3076,1062.2710622710622,,0,-1,1768778794.5653076
1768778794573.12,1068.8644688644688,,0,-1,1768778794.57312
1768778794580.9326,1079.120879120879,,0,-1,1768778794.5809326
1768778794588.745,1091.5750915750914,,0,-1,1768778794.588745
1768778794596.5576,1104.7619047619046,,0,-1,1768778794.5965576
1768778794604.37,1130.4029304029302,,0,-1,1768778794.60437
1768778794612.1826,1166.3003663003662,,0,-1,1768778794.6121826
1768778794619.995,1220.5128205128203,,0,-1,1768778794.619995
1768778794627.8076,1286.4468864468863,,0,-1,1768778794.6278076
1768778794635.62,1358.241758241758,,0,-1,1768778794.63562
1768778794643.4326,1436.6300366300366,,1,1,1768778794.6434326
1768778794651.245,1519.4139194139193,,1,1,1768778794.651245
1768778794659.0576,1602.9304029304028,,1,1,1768778794.6590576
1768778794666.87,1680.5860805860805,,1,1,1768778794.66687
1768778794674.6826,1750.9157509157508,,1,1,1768778794.6746826
1768778794682.495,1810.989010989011,,1,1,1768778794.682495
1768778794690.3076,1860.805860805861,,1,1,1768778794.6903076
1768778794698.12,1898.168498168498,,1,1,1768778794.69812
1768778794705.9326,1923.809523809524,,1,1,1768778794.7059326
1768778794713.745,1933.3333333333333,,1,1,1768778794.713745
1768778794721.5576,1934.065934065934,,1,1,1768778794.7215576
1768778794729.37,1928.205128205128,,1,1,1768778794.72937
1768778794737.1826,1915.7509157509155,,1,1,1768778794.7371826
1768778794744.995,1898.168498168498,,1,1,1768778794.744995
1768778794752.8076,1884.249084249084,,1,1,1768778794.7528076
1768778794760.62,1868.131868131868,,1,1,1768778794.76062
1768778794768.4326,1852.7472527472528,,1,1,1768778794.7684326
1768778794776.245,1842.4908424908424,,1,1,1768778794.776245
1768778794784.0576,1830.7692307692307,,1,1,1768778794.7840576
1768778794791.87,1812.4542124542124,,1,1,1768778794.79187
1768778794799.6826,1794.8717948717947,,1,1,1768778794.7996826
1768778794807.495,1778.021978021978,,1,1,1768778794.807495
1768778794815.3076,1759.7069597069597,,1,1,1768778794.8153076
1768778794823.12,1736.9963369963368,,1,1,1768778794.82312
1768778794830.9326,1712.087912087912,,1,1,1768778794.8309326
1768778794838.745,1689.3772893772891,,1,1,1768778794.838745
1768778794846.5576,1668.131868131868,,1,1,1768778794.8465576
1768778794854.37,1643.2234432234432,,1,1,1768778794.85437
1768778794862.1826,1616.117216117216,,1,1,1768778794.8621826
1768778794869.995,1589.0109890109889,,1,1,1768778794.869995
1768778794877.8076,1564.102564102564,,1,1,1768778794.8778076
1768778794885.62,1539.194139194139,,1,1,1768778794.88562
1768778794893.4326,1515.7509157509155,,1,1,1768778794.8934326
1768778794901.245,1494.5054945054944,,1,1,1768778794.901245
1768778794909.0576,1477.6556776556777,,1,1,1768778794.9090576
1768778794916.87,1461.5384615384614,,1,1,1768778794.91687
1768778794924.6826,1445.4212454212454,,1,1,1768778794.9246826
1768778794932.495,1431.5018315018317,,1,1,1768778794.932495
1768778794940.3076,1422.7106227106226,,1,1,1768778794.9403076
1768778794948.12,1418.3150183150185,,1,1,1768778794.94812
1768778794955.9326,1419.7802197802198,,1,1,1768778794.9559326
1768778794963.745,1420.5128205128203,,1,1,1768778794.963745
1768778794971.5576,1421.245421245421,,1,1,1768778794.9715576
1768778794979.37,1421.9780219780218,,1,1,1768778794.97937
1768778794987.1826,1422.7106227106226,,1,1,1768778794.9871826
1768778794994.995,1419.047619047619,,1,1,1768778794.994995
1768778795002.8076,1411.7216117216117,,1,1,1768778795.0028076
1768778795010.62,1402.197802197802,,1,1,1768778795.01062
1768778795018.4326,1389.7435897435896,,1,1,1768778795.0184326
1768778795026.245,1375.091575091575,,1,1,1768778795.026245
1768778795034.0576,1356.043956043956,,1,1,1768778795.0340576
1768778795041.87,1335.5311355311355,,1,1,1768778795.04187
1768778795049.6826,1321.6117216117216,,1,1,1768778795.0496826
1768778795057.495,1306.9597069597069,,1,1,1768778795.057495
1768778795065.3076,1295.2380952380952,,1,1,1768778795.0653076
1768778795073.12,1285.7142857142856,,1,1,1768778795.07312
1768778795080.9326,1273.260073260073,,1,1,1768778795.0809326
1768778795088.745,1260.805860805861,,1,1,1768778795.088745
1768778795096.5576,1248.3516483516482,,1,1,1768778795.0965576
1768778795104.37,1238.095238095238,,1,1,1768778795.10437
1768778795112.1826,1229.3040293040292,,1,1,1768778795.1121826
1768778795119.995,1221.9780219780218,,1,1,1768778795.119995
1768778795127.8076,1211.7216117216117,,1,1,1768778795.1278076
1768778795135.62,1204.3956043956043,,1,1,1768778795.13562
1768778795143.4326,1197.069597069597,,1,1,1768778795.1434326
1768778795151.245,1190.4761904761904,,1,1,1768778795.151245
1768778795159.0576,1183.150183150183,,1,1,1768778795.1590576
1768778795166.87,1174.3589743589744,,1,1,1768778795.16687
1768778795174.6826,1168.4981684981683,,1,1,1768778795.1746826
1768778795182.495,1165.5677655677655,,1,1,1768778795.182495
1768778795190.3076,1164.8351648351647,,1,1,1768778795.1903076
1768778795198.12,1166.3003663003662,,1,1,1768778795.19812
1768778795205.9326,1167.032967032967,,1,1,1768778795.2059326
1768778795213.745,1168.4981684981683,,1,1,1768778795.213745
1768778795221.5576,1169.9633699633698,,1,1,1768778795.2215576
1768778795229.37,1167.7655677655678,,1,1,1768778795.22937
1768778795237.1826,1161.904761904762,,1,1,1768778795.2371826
1768778795244.995,1151.6483516483515,,1,1,1768778795.244995
1768778795252.8076,1142.857142857143,,1,1,1768778795.2528076
1768778795260.62,1134.7985347985348,,1,1,1768778795.26062
1768778795268.4326,1126.739926739927,,1,1,1768778795.2684326
1768778795276.245,1122.3443223443223,,1,1,1768778795.276245
1768778795284.0576,1120.8791208791208,,1,1,1768778795.2840576
1768778795291.87,1117.9487179487178,,1,1,1768778795.29187
1768778795299.6826,1112.087912087912,,1,1,1768778795.2996826
1768778795307.495,1110.6227106227109,,1,1,1768778795.307495
1768778795315.3076,1115.7509157509155,,1,1,1768778795.3153076
1768778795323.12,1127.4725274725274,,1,1,1768778795.32312
1768778795330.9326,1136.9963369963368,,1,1,1768778795.3309326
1768778795338.745,1143.5897435897434,,1,1,1768778795.338745
1768778795346.5576,1145.7875457875457,,1,1,1768778795.3465576
1768778795354.37,1150.18315018315,,1,1,1768778795.35437
1768778795362.1826,1154.5787545787546,,1,1,1768778795.3621826
1768778795369.995,1157.5091575091574,,1,1,1768778795.369995
1768778795377.8076,1159.7069597069597,,1,1,1768778795.3778076
1768778795385.62,1159.7069597069597,,1,1,1768778795.38562
1768778795393.4326,1160.4395604395604,,1,1,1768778795.3934326
1768778795401.245,1160.4395604395604,,1,1,1768778795.401245
1768778795409.0576,1160.4395604395604,,1,1,1768778795.4090576
1768778795416.87,1157.5091575091574,,1,1,1768778795.41687
1768778795424.6826,1152.3809523809523,,1,1,1768778795.4246826
1768778795432.495,1151.6483516483515,,1,1,1768778795.432495
1768778795440.3076,1151.6483516483515,,1,1,1768778795.4403076
1768778795448.12,1149.4505494505493,,1,1,1768778795.44812
1768778795455.9326,1145.054945054945,,1,1,1768778795.4559326
1768778795463.745,1138.4615384615383,,1,1,1768778795.463745
1768778795471.5576,1131.135531135531,,1,1,1768778795.4715576
1768778795479.37,1122.3443223443223,,1,1,1768778795.47937
1768778795487.1826,1116.4835164835165,,1,1,1768778795.4871826
1768778795494.995,1113.5531135531137,,1,1,1768778795.494995
1768778795502.8076,1112.8205128205127,,1,1,1768778795.5028076
1768778795510.62,1114.2857142857142,,1,1,1768778795.51062
1768778795518.4326,1112.8205128205127,,1,1,1768778795.5184326
1768778795526.245,1111.3553113553112,,1,1,1768778795.526245
1768778795534.0576,1109.89010989011,,1,1,1768778795.5340576
1768778795541.87,1109.89010989011,,1,1,1768778795.54187
1768778795549.6826,1111.3553113553112,,1,1,1768778795.5496826
1768778795557.495,1111.3553113553112,,1,1,1768778795.557495
1768778795565.3076,1109.89010989011,,1,1,1768778795.5653076
1768778795573.12,1106.9597069597069,,1,1,1768778795.57312
1768778795580.9326,1105.4945054945051,,1,1,1768778795.5809326
1768778795588.745,1106.9597069597069,,1,1,1768778795.588745
1768778795596.5576,1109.89010989011,,1,1,1768778795.5965576
1768778795604.37,1109.89010989011,,1,1,1768778795.60437
1768778795612.1826,1106.227106227106,,1,1,1768778795.6121826
1768778795619.995,1095.970695970696,,1,1,1768778795.619995
1768778795627.8076,1083.5164835164835,,1,1,1768778795.6278076
1768778795635.62,1077.6556776556777,,1,1,1768778795.63562
1768778795643.4326,1077.6556776556777,,1,1,1768778795.6434326
1768778795651.245,1084.981684981685,,1,1,1768778795.651245
1768778795659.0576,1097.4358974358977,,1,1,1768778795.6590576
1768778795666.87,1117.2161172161173,,1,1,1768778795.66687
1768778795674.6826,1145.7875457875457,,1,1,1768778795.6746826
1768778795682.495,1181.6849816849815,,1,1,1768778795.682495
1768778795690.3076,1225.6410256410256,,1,1,1768778795.6903076
1768778795698.12,1281.3186813186812,,1,1,1768778795.69812
1768778795705.9326,1345.7875457875457,,1,1,1768778795.7059326
1768778795713.745,1413.1868131868132,,1,1,1768778795.713745
1768778795721.5576,1477.6556776556777,,1,1,1768778795.7215576
1768778795729.37,1540.6593406593406,,1,1,1768778795.72937
1768778795737.1826,1600.7326007326003,,1,1,1768778795.7371826
1768778795744.995,1653.479853479853,,1,1,1768778795.744995
1768778795752.8076,1701.098901098901,,1,1,1768778795.7528076
1768778795760.62,1741.3919413919414,,1,1,1768778795.76062
1768778795768.4326,1775.091575091575,,1,1,1768778795.7684326
1768778795776.245,1802.197802197802,,1,1,1768778795.776245
1768778795784.0576,1822.7106227106224,,1,1,1768778795.7840576
1768778795791.87,1834.4322344322345,,1,1,1768778795.79187
1768778795799.6826,1838.095238095238,,1,1,1768778795.7996826
1768778795807.495,1835.164835164835,,1,1,1768778795.807495
1768778795815.3076,1826.3736263736264,,1,1,1768778795.8153076
1768778795823.12,1813.186813186813,,1,1,1768778795.82312
1768778795830.9326,1792.6739926739926,,1,1,1768778795.8309326
1768778795838.745,1767.032967032967,,1,1,1768778795.838745
1768778795846.5576,1736.263736263736,,1,1,1768778795.8465576
1768778795854.37,1703.296703296703,,1,1,1768778795.85437
1768778795862.1826,1672.5274725274724,,1,1,1768778795.8621826
1768778795869.995,1643.2234432234432,,1,1,1768778795.869995
1768778795877.8076,1613.186813186813,,1,1,1768778795.8778076
1768778795885.62,1582.4175824175825,,1,1,1768778795.88562
1768778795893.4326,1557.5091575091574,,1,1,1768778795.8934326
1768778795901.245,1530.4029304029302,,1,1,1768778795.901245
1768778795909.0576,1502.5641025641023,,1,1,1768778795.9090576
1768778795916.87,1476.923076923077,,1,1,1768778795.91687
1768778795924.6826,1451.2820512820513,,1,1,1768778795.9246826
1768778795932.495,1432.2344322344322,,1,1,1768778795.932495
1768778795940.3076,1417.5824175824175,,1,1,1768778795.9403076
1768778795948.12,1405.128205128205,,1,1,1768778795.94812
1768778795955.9326,1392.6739926739926,,1,1,1768778795.9559326
1768778795963.745,1388.278388278388,,1,1,1768778795.963745
1768778795971.5576,1389.7435897435896,,1,1,1768778795.9715576
1768778795979.37,1393.4065934065934,,1,1,1768778795.97937
1768778795987.1826,1399.2673992673992,,1,1,1768778795.9871826
1768778795994.995,1410.989010989011,,1,1,1768778795.994995
1768778796002.8076,1419.7802197802198,,1,1,1768778796.0028076
1768778796010.62,1423.4432234432234,,1,1,1768778796.01062
1768778796018.4326,1427.106227106227,,1,1,1768778796.0184326
1768778796026.245,1430.7692307692307,,1,1,1768778796.026245
1768778796034.0576,1427.8388278388277,,1,1,1768778796.0340576
1768778796041.87,1423.4432234432234,,1,1,1768778796.04187
1768778796049.6826,1419.047619047619,,1,1,1768778796.0496826
1768778796057.495,1408.058608058608,,1,1,1768778796.057495
1768778796065.3076,1394.139194139194,,1,1,1768778796.0653076
1768778796073.12,1381.6849816849815,,1,1,1768778796.07312
1768778796080.9326,1372.8937728937728,,1,1,1768778796.0809326
1768778796088.745,1360.4395604395604,,1,1,1768778796.088745
1768778796096.5576,1347.2527472527472,,1,1,1768778796.0965576
1768778796104.37,1334.065934065934,,1,1,1768778796.10437
1768778796112.1826,1320.14652014652,,1,1,1768778796.1121826
1768778796119.995,1304.0293040293038,,1,1,1768778796.119995
1768778796127.8076,1289.3772893772891,,1,1,1768778796.1278076
1768778796135.62,1282.051282051282,,1,1,1768778796.13562
1768778796143.4326,1275.4578754578754,,1,1,1768778796.1434326
1768778796151.245,1271.7948717948716,,1,1,1768778796.151245
1768778796159.0576,1272.5274725274724,,1,1,1768778796.1590576
1768778796166.87,1271.062271062271,,1,1,1768778796.16687
1768778796174.6826,1265.9340659340658,,1,1,1768778796.1746826
1768778796182.495,1257.142857142857,,1,1,1768778796.182495
1768778796190.3076,1249.8168498168498,,1,1,1768778796.1903076
1768778796198.12,1241.7582417582416,,1,1,1768778796.19812
1768778796205.9326,1228.5714285714284,,1,1,1768778796.2059326
1768778796213.745,1217.5824175824175,,1,1,1768778796.213745
1768778796221.5576,1209.5238095238094,,1,1,1768778796.2215576
1768778796229.37,1201.4652014652013,,1,1,1768778796.22937
1768778796237.1826,1189.7435897435896,,1,1,1768778796.2371826
1768778796244.995,1183.8827838827838,,1,1,1768778796.244995
1768778796252.8076,1182.4175824175825,,1,1,1768778796.2528076
1768778796260.62,1178.7545787545787,,1,1,1768778796.26062
1768778796268.4326,1179.4871794871794,,1,1,1768778796.2684326
1768778796276.245,1178.7545787545787,,1,1,1768778796.276245
1768778796284.0576,1179.4871794871794,,1,1,1768778796.2840576
1768778796291.87,1183.8827838827838,,1,1,1768778796.29187
1768778796299.6826,1186.080586080586,,1,1,1768778796.2996826
1768778796307.495,1188.278388278388,,1,1,1768778796.307495
1768778796315.3076,1186.080586080586,,1,1,1768778796.3153076
1768778796323.12,1182.4175824175825,,1,1,1768778796.32312
1768778796330.9326,1178.7545787545787,,1,1,1768778796.3309326
1768778796338.745,1176.5567765567764,,1,1,1768778796.338745
1768778796346.5576,1178.7545787545787,,1,1,1768778796.3465576
1768778796354.37,1177.2893772893772,,1,1,1768778796.35437
1768778796362.1826,1178.7545787545787,,1,1,1768778796.3621826
1768778796369.995,1173.6263736263736,,1,1,1768778796.369995
1768778796377.8076,1170.6959706959706,,1,1,1768778796.3778076
1768778796385.62,1163.3699633699632,,1,1,1768778796.38562
1768778796393.4326,1161.904761904762,,1,1,1768778796.3934326
1768778796401.245,1158.974358974359,,1,1,1768778796.401245
1768778796409.0576,1161.1721611721612,,1,1,1768778796.4090576
1768778796416.87,1159.7069597069597,,1,1,1768778796.41687
1768778796424.6826,1161.904761904762,,1,1,1768778796.4246826
1768778796432.495,1160.4395604395604,,1,1,1768778796.432495
1768778796440.3076,1157.5091575091574,,1,1,1768778796.4403076
1768778796448.12,1153.8461538461538,,1,1,1768778796.44812
1768778796455.9326,1152.3809523809523,,1,1,1768778796.4559326
1768778796463.745,1151.6483516483515,,1,1,1768778796.463745
1768778796471.5576,1151.6483516483515,,0,-1,1768778796.4715576
1768778796479.37,1149.4505494505493,,0,-1,1768778796.47937
1768778796487.1826,1144.3223443223442,,0,-1,1768778796.4871826
1768778796494.995,1140.6593406593406,,0,-1,1768778796.494995
1768778796502.8076,1137.7289377289376,,0,-1,1768778796.5028076
1768778796510.62,1132.6007326007325,,0,-1,1768778796.51062
1768778796518.4326,1126.739926739927,,0,-1,1768778796.5184326
1768778796526.245,1122.3443223443223,,0,-1,1768778796.526245
1768778796534.0576,1120.14652014652,,0,-1,1768778796.5340576
1768778796541.87,1120.14652014652,,0,-1,1768778796.54187
1768778796549.6826,1119.4139194139193,,0,-1,1768778796.5496826
1768778796557.495,1118.6813186813183,,0,-1,1768778796.557495
1768778796565.3076,1121.6117216117216,,0,-1,1768778796.5653076
1768778796573.12,1122.3443223443223,,0,-1,1768778796.57312
1768778796580.9326,1125.2747252747251,,0,-1,1768778796.5809326
1768778796588.745,1125.2747252747251,,0,-1,1768778796.588745
1768778796596.5576,1134.065934065934,,0,-1,1768778796.5965576
1768778796604.37,1151.6483516483515,,0,-1,1768778796.60437
1768778796612.1826,1174.3589743589744,,0,-1,1768778796.6121826
1768778796619.995,1213.9194139194135,,0,-1,1768778796.619995
1768778796627.8076,1265.2014652014652,,0,-1,1768778796.6278076
1768778796635.62,1324.5421245421244,,0,-1,1768778796.63562
1768778796643.4326,1392.6739926739926,,0,-1,1768778796.6434326
1768778796651.245,1458.6080586080584,,0,-1,1768778796.651245
1768778796659.0576,1524.5421245421244,,0,-1,1768778796.6590576
1768778796666.87,1587.545787545787,,0,-1,1768778796.66687
1768778796674.6826,1643.956043956044,,0,-1,1768778796.6746826
1768778796682.495,1700.3663003663005,,0,-1,1768778796.682495
1768778796690.3076,1748.7179487179485,,0,-1,1768778796.6903076
1768778796698.12,1786.080586080586,,0,-1,1768778796.69812
1768778796705.9326,1817.5824175824173,,0,-1,1768778796.7059326
1768778796713.745,1837.362637362637,,0,-1,1768778796.713745
1768778796721.5576,1847.6190476190477,,0,-1,1768778796.7215576
1768778796729.37,1852.014652014652,,0,-1,1768778796.72937
1768778796737.1826,1843.2234432234432,,0,-1,1768778796.7371826
1768778796744.995,1833.6996336996333,,0,-1,1768778796.744995
1768778796752.8076,1816.8498168498168,,0,-1,1768778796.7528076
1768778796760.62,1798.5347985347985,,0,-1,1768778796.76062
1768778796768.4326,1783.150183150183,,0,-1,1768778796.7684326
1768778796776.245,1763.3699633699632,,0,-1,1768778796.776245
1768778796784.0576,1739.194139194139,,0,-1,1768778796.7840576
1768778796791.87,1713.5531135531137,,0,-1,1768778796.79187
1768778796799.6826,1689.3772893772891,,0,-1,1768778796.7996826
1768778796807.495,1667.3992673992673,,0,-1,1768778796.807495
1768778796815.3076,1645.4212454212452,,0,-1,1768778796.8153076
1768778796823.12,1624.9084249084249,,0,-1,1768778796.82312
1768778796830.9326,1605.128205128205,,0,-1,1768778796.8309326
1768778796838.745,1583.150183150183,,0,-1,1768778796.838745
1768778796846.5576,1557.5091575091574,,0,-1,1768778796.8465576
1768778796854.37,1531.8681318681315,,0,-1,1768778796.85437
1768778796862.1826,1508.4249084249084,,0,-1,1768778796.8621826
1768778796869.995,1488.6446886446886,,0,-1,1768778796.869995
1768778796877.8076,1467.3992673992673,,0,-1,1768778796.8778076
1768778796885.62,1444.688644688645,,0,-1,1768778796.88562
1768778796893.4326,1426.3736263736262,,0,-1,1768778796.8934326
1768778796901.245,1413.9194139194135,,0,-1,1768778796.901245
1768778796909.0576,1402.9304029304028,,0,-1,1768778796.9090576
1768778796916.87,1395.6043956043954,,0,-1,1768778796.91687
1768778796924.6826,1391.941391941392,,0,-1,1768778796.9246826
1768778796932.495,1390.4761904761904,,0,-1,1768778796.932495
1768778796940.3076,1389.0109890109889,,0,-1,1768778796.9403076
1768778796948.12,1386.8131868131868,,0,-1,1768778796.94812
1768778796955.9326,1383.8827838827838,,0,-1,1768778796.9559326
1768778796963.745,1380.2197802197802,,0,-1,1768778796.963745
1768778796971.5576,1377.2893772893772,,0,-1,1768778796.9715576
1768778796979.37,1375.8241758241757,,0,-1,1768778796.97937
1768778796987.1826,1373.6263736263736,,0,-1,1768778796.9871826
1768778796994.995,1369.9633699633698,,0,-1,1768778796.994995
1768778797002.8076,1364.8351648351647,,0,-1,1768778797.0028076
1768778797010.62,1355.311355311355,,0,-1,1768778797.01062
1768778797018.4326,1343.5897435897434,,0,-1,1768778797.0184326
1768778797026.245,1331.135531135531,,0,-1,1768778797.026245
1768778797034.0576,1319.4139194139193,,0,-1,1768778797.0340576
1768778797041.87,1309.1575091575091,,0,-1,1768778797.04187
1768778797049.6826,1295.2380952380952,,0,-1,1768778797.0496826
1768778797057.495,1280.5860805860805,,0,-1,1768778797.057495
1768778797065.3076,1265.9340659340658,,0,-1,1768778797.0653076
1768778797073.12,1255.6776556776556,,0,-1,1768778797.07312
1768778797080.9326,1249.084249084249,,0,-1,1768778797.0809326
1768778797088.745,1246.153846153846,,0,-1,1768778797.088745
1768778797096.5576,1242.4908424908424,,0,-1,1768778797.0965576
1768778797104.37,1238.095238095238,,0,-1,1768778797.10437
1768778797112.1826,1233.6996336996335,,0,-1,1768778797.1121826
1768778797119.995,1229.3040293040292,,0,-1,1768778797.119995
1768778797127.8076,1222.7106227106226,,0,-1,1768778797.1278076
1768778797135.62,1218.3150183150185,,0,-1,1768778797.13562
1768778797143.4326,1214.6520146520145,,0,-1,1768778797.1434326
1768778797151.245,1209.5238095238094,,0,-1,1768778797.151245
1768778797159.0576,1203.6630036630036,,0,-1,1768778797.1590576
1768778797166.87,1199.2673992673992,,0,-1,1768778797.16687
1768778797174.6826,1195.6043956043954,,0,-1,1768778797.1746826
1768778797182.495,1191.941391941392,,0,-1,1768778797.182495
1768778797190.3076,1186.8131868131868,,0,-1,1768778797.1903076
1768778797198.12,1180.2197802197802,,0,-1,1768778797.19812
1768778797205.9326,1174.3589743589744,,0,-1,1768778797.2059326
1768778797213.745,1171.428571428571,,0,-1,1768778797.213745
1768778797221.5576,1167.032967032967,,0,-1,1768778797.2215576
1768778797229.37,1163.3699633699632,,0,-1,1768778797.22937
1768778797237.1826,1161.904761904762,,0,-1,1768778797.2371826
1768778797244.995,1159.7069597069597,,0,-1,1768778797.244995
1768778797252.8076,1156.043956043956,,0,-1,1768778797.2528076
1768778797260.62,1155.311355311355,,0,-1,1768778797.26062
1768778797268.4326,1158.241758241758,,0,-1,1768778797.2684326
1768778797276.245,1157.5091575091574,,0,-1,1768778797.276245
1768778797284.0576,1153.8461538461538,,0,-1,1768778797.2840576
1768778797291.87,1148.7179487179487,,0,-1,1768778797.29187
1768778797299.6826,1143.5897435897434,,0,-1,1768778797.2996826
1768778797307.495,1140.6593406593406,,0,-1,1768778797.307495
1768778797315.3076,1139.92673992674,,0,-1,1768778797.3153076
1768778797323.12,1142.857142857143,,0,-1,1768778797.32312
1768778797330.9326,1145.7875457875457,,0,-1,1768778797.3309326
1768778797338.745,1151.6483516483515,,0,-1,1768778797.338745
1768778797346.5576,1156.7765567765566,,0,-1,1768778797.3465576
1768778797354.37,1161.1721611721612,,0,-1,1768778797.35437
1768778797362.1826,1163.3699633699632,,0,-1,1768778797.3621826
1768778797369.995,1164.102564102564,,0,-1,1768778797.369995
1768778797377.8076,1166.3003663003662,,0,-1,1768778797.3778076
1768778797385.62,1168.4981684981683,,0,-1,1768778797.38562
1768778797393.4326,1167.032967032967,,0,-1,1768778797.3934326
1768778797401.245,1163.3699633699632,,0,-1,1768778797.401245
1768778797409.0576,1158.241758241758,,0,-1,1768778797.4090576
1768778797416.87,1152.3809523809523,,0,-1,1768778797.41687
1768778797424.6826,1146.5201465201465,,0,-1,1768778797.4246826
1768778797432.495,1140.6593406593406,,0,-1,1768778797.432495
1768778797440.3076,1136.2637362637363,,0,-1,1768778797.4403076
1768778797448.12,1133.3333333333333,,0,-1,1768778797.44812
1768778797455.9326,1128.937728937729,,0,-1,1768778797.4559326
1768778797463.745,1120.8791208791208,,0,-1,1768778797.463745
1768778797471.5576,1115.7509157509155,,0,-1,1768778797.4715576
1768778797479.37,1116.4835164835165,,0,-1,1768778797.47937
1768778797487.1826,1122.3443223443223,,0,-1,1768778797.4871826
1768778797494.995,1126.739926739927,,0,-1,1768778797.494995
1768778797502.8076,1131.135531135531,,0,-1,1768778797.5028076
1768778797510.62,1132.6007326007325,,0,-1,1768778797.51062
1768778797518.4326,1130.4029304029302,,0,-1,1768778797.5184326
1768778797526.245,1132.6007326007325,,0,-1,1768778797.526245
1768778797534.0576,1139.194139194139,,0,-1,1768778797.5340576
1768778797541.87,1154.5787545787546,,0,-1,1768778797.54187
1768778797549.6826,1179.4871794871794,,0,-1,1768778797.5496826
1768778797557.495,1213.9194139194135,,0,-1,1768778797.557495
1768778797565.3076,1259.3406593406592,,0,-1,1768778797.5653076
1768778797573.12,1311.3553113553112,,0,-1,1768778797.57312
1768778797580.9326,1369.230769230769,,0,-1,1768778797.5809326
1768778797588.745,1432.9670329670328,,0,-1,1768778797.588745
1768778797596.5576,1501.098901098901,,0,-1,1768778797.5965576
1768778797604.37,1572.161172161172,,0,-1,1768778797.60437
1768778797612.1826,1641.7582417582416,,0,-1,1768778797.6121826
1768778797619.995,1706.9597069597069,,0,-1,1768778797.619995
1768778797627.8076,1764.8351648351647,,0,-1,1768778797.6278076
1768778797635.62,1819.78021978022,,0,-1,1768778797.63562
1768778797643.4326,1864.468864468864,,0,-1,1768778797.6434326
1768778797651.245,1898.9010989010987,,0,-1,1768778797.651245
1768778797659.0576,1923.0769230769229,,0,-1,1768778797.6590576
1768778797666.87,1940.6593406593408,,0,-1,1768778797.66687
1768778797674.6826,1951.6483516483515,,0,-1,1768778797.6746826
1768778797682.495,1951.6483516483515,,0,-1,1768778797.682495
1768778797690.3076,1948.7179487179485,,0,-1,1768778797.6903076
1768778797698.12,1939.194139194139,,0,-1,1768778797.69812
1768778797705.9326,1920.8791208791208,,0,-1,1768778797.7059326
1768778797713.745,1904.029304029304,,0,-1,1768778797.713745
1768778797721.5576,1890.1098901098896,,0,-1,1768778797.7215576
1768778797729.37,1875.4578754578756,,0,-1,1768778797.72937
1768778797737.1826,1854.9450549450548,,0,-1,1768778797.7371826
1768778797744.995,1833.6996336996333,,0,-1,1768778797.744995
1768778797752.8076,1814.6520146520145,,0,-1,1768778797.7528076
1768778797760.62,1796.3369963369962,,0,-1,1768778797.76062
1768778797768.4326,1776.5567765567764,,0,-1,1768778797.7684326
1768778797776.245,1753.8461538461538,,0,-1,1768778797.776245
1768778797784.0576,1729.6703296703297,,0,-1,1768778797.7840576
1768778797791.87,1707.6923076923076,,0,-1,1768778797.79187
1768778797799.6826,1684.9816849816848,,0,-1,1768778797.7996826
1768778797807.495,1660.805860805861,,0,-1,1768778797.807495
1768778797815.3076,1630.7692307692307,,0,-1,1768778797.8153076
1768778797823.12,1600.0,,0,-1,1768778797.82312
1768778797830.9326,1574.3589743589744,,0,-1,1768778797.8309326
1768778797838.745,1545.7875457875457,,0,-1,1768778797.838745
1768778797846.5576,1517.9487179487178,,0,-1,1768778797.8465576
1768778797854.37,1493.040293040293,,0,-1,1768778797.85437
1768778797862.1826,1473.992673992674,,0,-1,1768778797.8621826
1768778797869.995,1462.2710622710622,,0,-1,1768778797.869995
1768778797877.8076,1450.5494505494505,,0,-1,1768778797.8778076
1768778797885.62,1437.362637362637,,0,-1,1768778797.88562
1768778797893.4326,1425.6410256410256,,0,-1,1768778797.8934326
1768778797901.245,1417.5824175824175,,0,-1,1768778797.901245
1768778797909.0576,1413.9194139194135,,0,-1,1768778797.9090576
1768778797916.87,1412.4542124542124,,0,-1,1768778797.91687
1768778797924.6826,1412.4542124542124,,0,-1,1768778797.9246826
1768778797932.495,1413.1868131868132,,0,-1,1768778797.932495
1768778797940.3076,1410.989010989011,,0,-1,1768778797.9403076
1768778797948.12,1409.5238095238094,,0,-1,1768778797.94812
1768778797955.9326,1402.9304029304028,,0,-1,1768778797.9559326
1768778797963.745,1391.2087912087911,,0,-1,1768778797.963745
1768778797971.5576,1376.5567765567764,,0,-1,1768778797.9715576
1768778797979.37,1364.102564102564,,0,-1,1768778797.97937
1768778797987.1826,1350.9157509157508,,0,-1,1768778797.9871826
1768778797994.995,1341.3919413919414,,0,-1,1768778797.994995
1768778798002.8076,1335.5311355311355,,0,-1,1768778798.0028076
1768778798010.62,1331.8681318681315,,0,-1,1768778798.01062
1768778798018.4326,1330.4029304029302,,0,-1,1768778798.0184326
1768778798026.245,1331.8681318681315,,0,-1,1768778798.026245
1768778798034.0576,1328.937728937729,,0,-1,1768778798.0340576
1768778798041.87,1320.14652014652,,0,-1,1768778798.04187
1768778798049.6826,1311.3553113553112,,0,-1,1768778798.0496826
1768778798057.495,1298.168498168498,,0,-1,1768778798.057495
1768778798065.3076,1279.8534798534797,,0,-1,1768778798.0653076
1768778798073.12,1263.003663003663,,0,-1,1768778798.07312
1768778798080.9326,1250.5494505494505,,0,-1,1768778798.0809326
1768778798088.745,1242.4908424908424,,0,-1,1768778798.088745
1768778798096.5576,1230.03663003663,,0,-1,1768778798.0965576
1768778798104.37,1219.047619047619,,0,-1,1768778798.10437
1768778798112.1826,1212.4542124542124,,0,-1,1768778798.1121826
1768778798119.995,1203.6630036630036,,0,-1,1768778798.119995
1768778798127.8076,1198.5347985347985,,0,-1,1768778798.1278076
1768778798135.62,1197.8021978021975,,0,-1,1768778798.13562
1768778798143.4326,1190.4761904761904,,0,-1,1768778798.1434326
1768778798151.245,1186.8131868131868,,0,-1,1768778798.151245
1768778798159.0576,1183.8827838827838,,0,-1,1768778798.1590576
1768778798166.87,1179.4871794871794,,0,-1,1768778798.16687
1768778798174.6826,1172.8937728937728,,0,-1,1768778798.1746826
1768778798182.495,1167.032967032967,,0,-1,1768778798.182495
1768778798190.3076,1164.8351648351647,,0,-1,1768778798.1903076
1768778798198.12,1157.5091575091574,,0,-1,1768778798.19812
1768778798205.9326,1144.3223443223442,,0,-1,1768778798.2059326
1768778798213.745,1133.3333333333333,,0,-1,1768778798.213745
1768778798221.5576,1127.4725274725274,,0,-1,1768778798.2215576
1768778798229.37,1128.2051282051282,,0,-1,1768778798.22937
1768778798237.1826,1131.135531135531,,0,-1,1768778798.2371826
1768778798244.995,1133.3333333333333,,0,-1,1768778798.244995
1768778798252.8076,1139.194139194139,,0,-1,1768778798.2528076
1768778798260.62,1147.985347985348,,0,-1,1768778798.26062
1768778798268.4326,1154.5787545787546,,0,-1,1768778798.2684326
1768778798276.245,1160.4395604395604,,0,-1,1768778798.276245
1768778798284.0576,1164.8351648351647,,0,-1,1768778798.2840576
1768778798291.87,1167.032967032967,,0,-1,1768778798.29187
1768778798299.6826,1167.7655677655678,,0,-1,1768778798.2996826
1768778798307.495,1167.7655677655678,,0,-1,1768778798.307495
1768778798315.3076,1167.7655677655678,,0,-1,1768778798.3153076
1768778798323.12,1166.3003663003662,,0,-1,1768778798.32312
1768778798330.9326,1158.974358974359,,0,-1,1768778798.3309326
1768778798338.745,1154.5787545787546,,0,-1,1768778798.338745
1768778798346.5576,1150.18315018315,,0,-1,1768778798.3465576
1768778798354.37,1140.6593406593406,,0,-1,1768778798.35437
1768778798362.1826,1129.6703296703297,,0,-1,1768778798.3621826
1768778798369.995,1125.2747252747251,,0,-1,1768778798.369995
1768778798377.8076,1117.9487179487178,,0,-1,1768778798.3778076
1768778798385.62,1114.2857142857142,,0,-1,1768778798.38562
1768778798393.4326,1115.7509157509155,,0,-1,1768778798.3934326
1768778798401.245,1117.2161172161173,,0,-1,1768778798.401245
1768778798409.0576,1115.7509157509155,,0,-1,1768778798.4090576
1768778798416.87,1117.9487179487178,,0,-1,1768778798.41687
1768778798424.6826,1117.2161172161173,,0,-1,1768778798.4246826
1768778798432.495,1116.4835164835165,,0,-1,1768778798.432495
1768778798440.3076,1120.14652014652,,0,-1,1768778798.4403076
1768778798448.12,1120.14652014652,,0,-1,1768778798.44812
1768778798455.9326,1123.8095238095236,,0,-1,1768778798.4559326
1768778798463.745,1127.4725274725274,,0,-1,1768778798.463745
1768778798471.5576,1126.739926739927,,0,-1,1768778798.4715576
1768778798479.37,1132.6007326007325,,0,-1,1768778798.47937
1768778798487.1826,1138.4615384615383,,0,-1,1768778798.4871826
1768778798494.995,1155.311355311355,,0,-1,1768778798.494995
1768778798502.8076,1178.021978021978,,0,-1,1768778798.5028076
1768778798510.62,1218.3150183150185,,0,-1,1768778798.51062
1768778798518.4326,1266.6666666666663,,0,-1,1768778798.5184326
1768778798526.245,1327.4725274725274,,0,-1,1768778798.526245
1768778798534.0576,1391.2087912087911,,0,-1,1768778798.5340576
1768778798541.87,1460.07326007326,,0,-1,1768778798.54187
1768778798549.6826,1528.2051282051282,,0,-1,1768778798.5496826
1768778798557.495,1597.069597069597,,0,-1,1768778798.557495
1768778798565.3076,1665.201465201465,,0,-1,1768778798.5653076
1768778798573.12,1730.4029304029302,,0,-1,1768778798.57312
1768778798580.9326,1788.278388278388,,0,-1,1768778798.5809326
1768778798588.745,1839.5604395604396,,0,-1,1768778798.588745
1768778798596.5576,1873.9926739926736,,0,-1,1768778798.5965576
1768778798604.37,1903.296703296703,,0,-1,1768778798.60437
1768778798612.1826,1918.6813186813183,,0,-1,1768778798.6121826
1768778798619.995,1930.4029304029305,,0,-1,1768778798.619995
1768778798627.8076,1931.868131868132,,0,-1,1768778798.6278076
1768778798635.62,1931.868131868132,,0,-1,1768778798.63562
1768778798643.4326,1924.5421245421244,,0,-1,1768778798.6434326
1768778798651.245,1917.9487179487176,,0,-1,1768778798.651245
1768778798659.0576,1907.692307692308,,0,-1,1768778798.6590576
1768778798666.87,1893.7728937728937,,0,-1,1768778798.66687
1768778798674.6826,1876.190476190476,,0,-1,1768778798.6746826
1768778798682.495,1860.805860805861,,0,-1,1768778798.682495
1768778798690.3076,1842.4908424908424,,0,-1,1768778798.6903076
1768778798698.12,1822.7106227106224,,0,-1,1768778798.69812
1768778798705.9326,1805.8608058608056,,0,-1,1768778798.7059326
1768778798713.745,1782.4175824175825,,0,-1,1768778798.713745
1768778798721.5576,1760.4395604395604,,0,-1,1768778798.7215576
1768778798729.37,1734.065934065934,,0,-1,1768778798.72937
1768778798737.1826,1709.8901098901097,,0,-1,1768778798.7371826
1768778798744.995,1683.5164835164835,,0,-1,1768778798.744995
1768778798752.8076,1656.4102564102564,,0,-1,1768778798.7528076
1768778798760.62,1624.9084249084249,,0,-1,1768778798.76062
1768778798768.4326,1593.4065934065934,,0,-1,1768778798.7684326
1768778798776.245,1559.7069597069597,,0,-1,1768778798.776245
1768778798784.0576,1526.007326007326,,0,-1,1768778798.7840576
1768778798791.87,1498.168498168498,,0,-1,1768778798.79187
1768778798799.6826,1471.7948717948716,,0,-1,1768778798.7996826
1768778798807.495,1452.7472527472526,,0,-1,1768778798.807495
1768778798815.3076,1433.6996336996335,,0,-1,1768778798.8153076
1768778798823.12,1424.175824175824,,0,-1,1768778798.82312
1768778798830.9326,1418.3150183150185,,0,-1,1768778798.8309326
1768778798838.745,1421.245421245421,,0,-1,1768778798.838745
1768778798846.5576,1420.5128205128203,,0,-1,1768778798.8465576
1768778798854.37,1422.7106227106226,,0,-1,1768778798.85437
1768778798862.1826,1418.3150183150185,,0,-1,1768778798.8621826
1768778798869.995,1418.3150183150185,,0,-1,1768778798.869995
1768778798877.8076,1414.6520146520145,,0,-1,1768778798.8778076
1768778798885.62,1410.2564102564102,,0,-1,1768778798.88562
1768778798893.4326,1402.197802197802,,0,-1,1768778798.8934326
1768778798901.245,1397.8021978021975,,0,-1,1768778798.901245
1768778798909.0576,1388.278388278388,,0,-1,1768778798.9090576
1768778798916.87,1384.6153846153843,,0,-1,1768778798.91687
1768778798924.6826,1378.7545787545787,,0,-1,1768778798.9246826
1768778798932.495,1373.6263736263736,,0,-1,1768778798.932495
1768778798940.3076,1369.230769230769,,0,-1,1768778798.9403076
1768778798948.12,1361.904761904762,,0,-1,1768778798.94812
1768778798955.9326,1348.7179487179487,,0,-1,1768778798.9559326
1768778798963.745,1335.5311355311355,,0,-1,1768778798.963745
1768778798971.5576,1316.4835164835165,,0,-1,1768778798.9715576
1768778798979.37,1301.8315018315018,,0,-1,1768778798.97937
1768778798987.1826,1281.3186813186812,,0,-1,1768778798.9871826
1768778798994.995,1263.003663003663,,0,-1,1768778798.994995
1768778799002.8076,1247.6190476190477,,0,-1,1768778799.0028076
1768778799010.62,1228.5714285714284,,0,-1,1768778799.01062
1768778799018.4326,1213.1868131868132,,0,-1,1768778799.0184326
1768778799026.245,1205.8608058608058,,0,-1,1768778799.026245
1768778799034.0576,1197.069597069597,,0,-1,1768778799.0340576
1768778799041.87,1192.6739926739926,,0,-1,1768778799.04187
1768778799049.6826,1186.8131868131868,,0,-1,1768778799.0496826
1768778799057.495,1187.5457875457876,,1,2,1768778799.057495
1768778799065.3076,1185.3479853479853,,1,2,1768778799.0653076
1768778799073.12,1179.4871794871794,,1,2,1768778799.07312
1768778799080.9326,1174.3589743589744,,1,2,1768778799.0809326
1768778799088.745,1170.6959706959706,,1,2,1768778799.088745
1768778799096.5576,1164.8351648351647,,1,2,1768778799.0965576
1768778799104.37,1158.974358974359,,1,2,1768778799.10437
1768778799112.1826,1154.5787545787546,,1,2,1768778799.1121826
1768778799119.995,1148.7179487179487,,1,2,1768778799.119995
1768778799127.8076,1137.7289377289376,,1,2,1768778799.1278076
1768778799135.62,1132.6007326007325,,1,2,1768778799.13562
1768778799143.4326,1127.4725274725274,,1,2,1768778799.1434326
1768778799151.245,1126.739926739927,,1,2,1768778799.151245
1768778799159.0576,1124.5421245421244,,1,2,1768778799.1590576
1768778799166.87,1125.2747252747251,,1,2,1768778799.16687
1768778799174.6826,1122.3443223443223,,1,2,1768778799.1746826
1768778799182.495,1117.9487179487178,,1,2,1768778799.182495
1768778799190.3076,1120.8791208791208,,1,2,1768778799.1903076
1768778799198.12,1118.6813186813183,,1,2,1768778799.19812
1768778799205.9326,1121.6117216117216,,1,2,1768778799.2059326
1768778799213.745,1122.3443223443223,,1,2,1768778799.213745
1768778799221.5576,1126.007326007326,,1,2,1768778799.2215576
1768778799229.37,1132.6007326007325,,1,2,1768778799.22937
1768778799237.1826,1133.3333333333333,,1,2,1768778799.2371826
1768778799244.995,1128.937728937729,,1,2,1768778799.244995
1768778799252.8076,1122.3443223443223,,1,2,1768778799.2528076
1768778799260.62,1117.2161172161173,,1,2,1768778799.26062
1768778799268.4326,1114.2857142857142,,1,2,1768778799.2684326
1768778799276.245,1112.8205128205127,,1,2,1768778799.276245
1768778799284.0576,1112.8205128205127,,1,2,1768778799.2840576
1768778799291.87,1117.2161172161173,,1,2,1768778799.29187
1768778799299.6826,1125.2747252747251,,1,2,1768778799.2996826
1768778799307.495,1128.2051282051282,,1,2,1768778799.307495
1768778799315.3076,1128.937728937729,,1,2,1768778799.3153076
1768778799323.12,1128.2051282051282,,1,2,1768778799.32312
1768778799330.9326,1127.4725274725274,,1,2,1768778799.3309326
1768778799338.745,1131.8681318681315,,1,2,1768778799.338745
1768778799346.5576,1136.2637362637363,,1,2,1768778799.3465576
1768778799354.37,1137.7289377289376,,1,2,1768778799.35437
1768778799362.1826,1139.194139194139,,1,2,1768778799.3621826
1768778799369.995,1139.92673992674,,1,2,1768778799.369995
1768778799377.8076,1134.7985347985348,,1,2,1768778799.3778076
1768778799385.62,1127.4725274725274,,1,2,1768778799.38562
1768778799393.4326,1128.2051282051282,,1,2,1768778799.3934326
1768778799401.245,1131.135531135531,,1,2,1768778799.401245
1768778799409.0576,1136.2637362637363,,1,2,1768778799.4090576
1768778799416.87,1146.5201465201465,,1,2,1768778799.41687
1768778799424.6826,1152.3809523809523,,1,2,1768778799.4246826
1768778799432.495,1159.7069597069597,,1,2,1768778799.432495
1768778799440.3076,1166.3003663003662,,1,2,1768778799.4403076
1768778799448.12,1169.9633699633698,,1,2,1768778799.44812
1768778799455.9326,1175.0915750915751,,1,2,1768778799.4559326
1768778799463.745,1189.7435897435896,,1,2,1768778799.463745
1768778799471.5576,1212.4542124542124,,1,2,1768778799.4715576
1768778799479.37,1239.5604395604396,,1,2,1768778799.47937
1768778799487.1826,1273.260073260073,,1,2,1768778799.4871826
1768778799494.995,1321.6117216117216,,1,2,1768778799.494995
1768778799502.8076,1382.4175824175825,,1,2,1768778799.5028076
1768778799510.62,1450.5494505494505,,1,2,1768778799.51062
1768778799518.4326,1522.3443223443223,,1,2,1768778799.5184326
1768778799526.245,1597.8021978021975,,1,2,1768778799.526245
1768778799534.0576,1671.7948717948716,,1,2,1768778799.5340576
1768778799541.87,1740.6593406593406,,1,2,1768778799.54187
1768778799549.6826,1802.197802197802,,1,2,1768778799.5496826
1768778799557.495,1848.351648351648,,1,2,1768778799.557495
1768778799565.3076,1881.3186813186808,,1,2,1768778799.5653076
1768778799573.12,1898.168498168498,,1,2,1768778799.57312
1768778799580.9326,1906.227106227106,,1,2,1768778799.5809326
1768778799588.745,1907.692307692308,,1,2,1768778799.588745
1768778799596.5576,1903.296703296703,,1,2,1768778799.5965576
1768778799604.37,1895.2380952380952,,1,2,1768778799.60437
1768778799612.1826,1882.7838827838827,,1,2,1768778799.6121826
1768778799619.995,1870.3296703296703,,1,2,1768778799.619995
1768778799627.8076,1854.9450549450548,,1,2,1768778799.6278076
1768778799635.62,1837.362637362637,,1,2,1768778799.63562
1768778799643.4326,1818.3150183150185,,1,2,1768778799.6434326
1768778799651.245,1797.069597069597,,1,2,1768778799.651245
1768778799659.0576,1776.5567765567764,,1,2,1768778799.6590576
1768778799666.87,1754.5787545787546,,1,2,1768778799.66687
1768778799674.6826,1730.4029304029302,,1,2,1768778799.6746826
1768778799682.495,1705.4945054945051,,1,2,1768778799.682495
1768778799690.3076,1679.120879120879,,1,2,1768778799.6903076
1768778799698.12,1651.2820512820513,,1,2,1768778799.69812
1768778799705.9326,1623.4432234432234,,1,2,1768778799.7059326
1768778799713.745,1593.4065934065934,,1,2,1768778799.713745
1768778799721.5576,1564.102564102564,,1,2,1768778799.7215576
1768778799729.37,1538.4615384615383,,1,2,1768778799.72937
1768778799737.1826,1516.4835164835165,,1,2,1768778799.7371826
1768778799744.995,1496.7032967032967,,1,2,1768778799.744995
1768778799752.8076,1478.3882783882782,,1,2,1768778799.7528076
1768778799760.62,1465.201465201465,,1,2,1768778799.76062
1768778799768.4326,1454.212454212454,,1,2,1768778799.7684326
1768778799776.245,1444.688644688645,,1,2,1768778799.776245
1768778799784.0576,1435.8974358974358,,1,2,1768778799.7840576
1768778799791.87,1428.5714285714284,,1,2,1768778799.79187
1768778799799.6826,1425.6410256410256,,1,2,1768778799.7996826
1768778799807.495,1427.8388278388277,,1,2,1768778799.807495
1768778799815.3076,1432.9670329670328,,1,2,1768778799.8153076
1768778799823.12,1437.362637362637,,1,2,1768778799.82312
1768778799830.9326,1438.095238095238,,1,2,1768778799.8309326
1768778799838.745,1435.8974358974358,,1,2,1768778799.838745
1768778799846.5576,1430.7692307692307,,1,2,1768778799.8465576
1768778799854.37,1424.175824175824,,1,2,1768778799.85437
1768778799862.1826,1417.5824175824175,,1,2,1768778799.8621826
1768778799869.995,1410.2564102564102,,1,2,1768778799.869995
1768778799877.8076,1403.6630036630036,,1,2,1768778799.8778076
1768778799885.62,1394.139194139194,,1,2,1768778799.88562
1768778799893.4326,1383.150183150183,,1,2,1768778799.8934326
1768778799901.245,1368.4981684981683,,1,2,1768778799.901245
1768778799909.0576,1352.3809523809523,,1,2,1768778799.9090576
1768778799916.87,1342.124542124542,,1,2,1768778799.91687
1768778799924.6826,1330.4029304029302,,1,2,1768778799.9246826
1768778799932.495,1318.6813186813183,,1,2,1768778799.932495
1768778799940.3076,1308.4249084249084,,1,2,1768778799.9403076
1768778799948.12,1298.9010989010987,,1,2,1768778799.94812
1768778799955.9326,1292.3076923076922,,1,2,1768778799.9559326
1768778799963.745,1287.179487179487,,1,2,1768778799.963745
1768778799971.5576,1281.3186813186812,,1,2,1768778799.9715576
1768778799979.37,1274.7252747252746,,1,2,1768778799.97937
1768778799987.1826,1268.131868131868,,1,2,1768778799.9871826
1768778799994.995,1259.3406593406592,,1,2,1768778799.994995
1768778800002.8076,1249.8168498168498,,1,2,1768778800.0028076
1768778800010.62,1241.0256410256409,,1,2,1768778800.01062
1768778800018.4326,1232.2344322344322,,1,2,1768778800.0184326
1768778800026.245,1224.175824175824,,1,2,1768778800.026245
1768778800034.0576,1219.047619047619,,1,2,1768778800.0340576
1768778800041.87,1214.6520146520145,,1,2,1768778800.04187
1768778800049.6826,1211.7216117216117,,1,2,1768778800.0496826
1768778800057.495,1209.5238095238094,,1,2,1768778800.057495
1768778800065.3076,1208.7912087912086,,1,2,1768778800.0653076
1768778800073.12,1203.6630036630036,,1,2,1768778800.07312
1768778800080.9326,1200.7326007326008,,1,2,1768778800.0809326
1768778800088.745,1200.0,,1,2,1768778800.088745
1768778800096.5576,1197.069597069597,,1,2,1768778800.0965576
1768778800104.37,1194.8717948717947,,1,2,1768778800.10437
1768778800112.1826,1194.8717948717947,,1,2,1768778800.1121826
1768778800119.995,1197.8021978021975,,1,2,1768778800.119995
1768778800127.8076,1200.7326007326008,,1,2,1768778800.1278076
1768778800135.62,1203.6630036630036,,1,2,1768778800.13562
1768778800143.4326,1205.128205128205,,1,2,1768778800.1434326
1768778800151.245,1204.3956043956043,,1,2,1768778800.151245
1768778800159.0576,1202.197802197802,,1,2,1768778800.1590576
1768778800166.87,1199.2673992673992,,1,2,1768778800.16687
1768778800174.6826,1194.8717948717947,,1,2,1768778800.1746826
1768778800182.495,1188.278388278388,,1,2,1768778800.182495
1768778800190.3076,1178.7545787545787,,1,2,1768778800.1903076
1768778800198.12,1167.032967032967,,1,2,1768778800.19812
1768778800205.9326,1154.5787545787546,,1,2,1768778800.2059326
1768778800213.745,1141.3919413919414,,1,2,1768778800.213745
1768778800221.5576,1128.2051282051282,,1,2,1768778800.2215576
1768778800229.37,1116.4835164835165,,1,2,1768778800.22937
1768778800237.1826,1108.4249084249084,,1,2,1768778800.2371826
1768778800244.995,1106.9597069597069,,1,2,1768778800.244995
1768778800252.8076,1109.1575091575091,,1,2,1768778800.2528076
1768778800260.62,1110.6227106227109,,1,2,1768778800.26062
1768778800268.4326,1109.89010989011,,1,2,1768778800.2684326
1768778800276.245,1108.4249084249084,,1,2,1768778800.276245
1768778800284.0576,1105.4945054945051,,1,2,1768778800.2840576
1768778800291.87,1106.9597069597069,,1,2,1768778800.29187
1768778800299.6826,1111.3553113553112,,1,2,1768778800.2996826
1768778800307.495,1118.6813186813183,,1,2,1768778800.307495
1768778800315.3076,1128.2051282051282,,1,2,1768778800.3153076
1768778800323.12,1136.2637362637363,,1,2,1768778800.32312
1768778800330.9326,1143.5897435897434,,1,2,1768778800.3309326
1768778800338.745,1150.18315018315,,1,2,1768778800.338745
1768778800346.5576,1154.5787545787546,,1,2,1768778800.3465576
1768778800354.37,1160.4395604395604,,1,2,1768778800.35437
1768778800362.1826,1166.3003663003662,,1,2,1768778800.3621826
1768778800369.995,1173.6263736263736,,1,2,1768778800.369995
1768778800377.8076,1186.080586080586,,1,2,1768778800.3778076
1768778800385.62,1202.197802197802,,1,2,1768778800.38562
1768778800393.4326,1226.3736263736264,,1,2,1768778800.3934326
1768778800401.245,1260.07326007326,,1,2,1768778800.401245
1768778800409.0576,1303.2967032967033,,1,2,1768778800.4090576
1768778800416.87,1353.113553113553,,1,2,1768778800.41687
1768778800424.6826,1405.8608058608058,,1,2,1768778800.4246826
1768778800432.495,1464.4688644688645,,1,2,1768778800.432495
1768778800440.3076,1526.007326007326,,1,2,1768778800.4403076
1768778800448.12,1586.080586080586,,1,2,1768778800.44812
1768778800455.9326,1641.7582417582416,,1,2,1768778800.4559326
1768778800463.745,1692.3076923076922,,1,2,1768778800.463745
1768778800471.5576,1736.9963369963368,,1,2,1768778800.4715576
1768778800479.37,1772.161172161172,,1,2,1768778800.47937
1768778800487.1826,1792.6739926739926,,1,2,1768778800.4871826
1768778800494.995,1803.663003663004,,1,2,1768778800.494995
1768778800502.8076,1806.5934065934064,,1,2,1768778800.5028076
1768778800510.62,1802.9304029304028,,1,2,1768778800.51062
1768778800518.4326,1795.6043956043954,,1,2,1768778800.5184326
1768778800526.245,1783.8827838827838,,1,2,1768778800.526245
1768778800534.0576,1768.4981684981683,,1,2,1768778800.5340576
1768778800541.87,1747.985347985348,,1,2,1768778800.54187
1768778800549.6826,1723.0769230769229,,1,2,1768778800.5496826
1768778800557.495,1693.040293040293,,1,2,1768778800.557495
1768778800565.3076,1660.805860805861,,1,2,1768778800.5653076
1768778800573.12,1627.106227106227,,1,2,1768778800.57312
1768778800580.9326,1596.3369963369962,,1,2,1768778800.5809326
1768778800588.745,1572.8937728937728,,1,2,1768778800.588745
1768778800596.5576,1553.8461538461538,,1,2,1768778800.5965576
1768778800604.37,1536.9963369963368,,1,2,1768778800.60437
1768778800612.1826,1523.0769230769229,,1,2,1768778800.6121826
1768778800619.995,1507.6923076923076,,1,2,1768778800.619995
1768778800627.8076,1492.3076923076922,,1,2,1768778800.6278076
1768778800635.62,1477.6556776556777,,1,2,1768778800.63562
1768778800643.4326,1465.201465201465,,1,2,1768778800.6434326
1768778800651.245,1452.7472527472526,,1,2,1768778800.651245
1768778800659.0576,1443.956043956044,,1,2,1768778800.6590576
1768778800666.87,1432.9670329670328,,1,2,1768778800.66687
1768778800674.6826,1424.9084249084249,,1,2,1768778800.6746826
1768778800682.495,1419.7802197802198,,1,2,1768778800.682495
1768778800690.3076,1411.7216117216117,,1,2,1768778800.6903076
1768778800698.12,1402.9304029304028,,1,2,1768778800.69812
1768778800705.9326,1401.4652014652013,,1,2,1768778800.7059326
1768778800713.745,1401.4652014652013,,1,2,1768778800.713745
1768778800721.5576,1407.3260073260071,,1,2,1768778800.7215576
1768778800729.37,1408.7912087912086,,1,2,1768778800.72937
1768778800737.1826,1411.7216117216117,,1,2,1768778800.7371826
1768778800744.995,1412.4542124542124,,1,2,1768778800.744995
1768778800752.8076,1410.989010989011,,1,2,1768778800.7528076
1768778800760.62,1411.7216117216117,,1,2,1768778800.76062
1768778800768.4326,1408.7912087912086,,1,2,1768778800.7684326
1768778800776.245,1402.197802197802,,1,2,1768778800.776245
1768778800784.0576,1399.2673992673992,,1,2,1768778800.7840576
1768778800791.87,1391.2087912087911,,1,2,1768778800.79187
1768778800799.6826,1386.8131868131868,,1,2,1768778800.7996826
1768778800807.495,1375.091575091575,,1,2,1768778800.807495
1768778800815.3076,1361.1721611721612,,1,2,1768778800.8153076
1768778800823.12,1345.7875457875457,,1,2,1768778800.82312
1768778800830.9326,1327.4725274725274,,1,2,1768778800.8309326
1768778800838.745,1314.2857142857142,,1,2,1768778800.838745
1768778800846.5576,1299.6336996336995,,1,2,1768778800.8465576
1768778800854.37,1289.3772893772891,,1,2,1768778800.85437
1768778800862.1826,1287.179487179487,,1,2,1768778800.8621826
1768778800869.995,1282.051282051282,,1,2,1768778800.869995
1768778800877.8076,1283.5164835164835,,1,2,1768778800.8778076
1768778800885.62,1279.8534798534797,,1,2,1768778800.88562
1768778800893.4326,1279.8534798534797,,1,2,1768778800.8934326
1768778800901.245,1272.5274725274724,,1,2,1768778800.901245
1768778800909.0576,1265.2014652014652,,1,2,1768778800.9090576
1768778800916.87,1261.5384615384614,,0,-1,1768778800.91687
1768778800924.6826,1253.479853479853,,0,-1,1768778800.9246826
1768778800932.495,1244.688644688645,,0,-1,1768778800.932495
1768778800940.3076,1237.362637362637,,0,-1,1768778800.9403076
1768778800948.12,1230.03663003663,,0,-1,1768778800.94812
1768778800955.9326,1227.106227106227,,0,-1,1768778800.9559326
1768778800963.745,1225.6410256410256,,0,-1,1768778800.963745
1768778800971.5576,1227.8388278388277,,0,-1,1768778800.9715576
1768778800979.37,1227.8388278388277,,0,-1,1768778800.97937
1768778800987.1826,1226.3736263736264,,0,-1,1768778800.9871826
1768778800994.995,1231.5018315018317,,0,-1,1768778800.994995
1768778801002.8076,1233.6996336996335,,0,-1,1768778801.0028076
1768778801010.62,1227.8388278388277,,0,-1,1768778801.01062
1768778801018.4326,1219.7802197802198,,0,-1,1768778801.0184326
1768778801026.245,1205.8608058608058,,0,-1,1768778801.026245
1768778801034.0576,1197.069597069597,,0,-1,1768778801.0340576
1768778801041.87,1192.6739926739926,,0,-1,1768778801.04187
1768778801049.6826,1185.3479853479853,,0,-1,1768778801.0496826
1768778801057.495,1182.4175824175825,,0,-1,1768778801.057495
1768778801065.3076,1179.4871794871794,,0,-1,1768778801.0653076
1768778801073.12,1174.3589743589744,,0,-1,1768778801.07312
1768778801080.9326,1174.3589743589744,,0,-1,1768778801.0809326
1768778801088.745,1170.6959706959706,,0,-1,1768778801.088745
1768778801096.5576,1169.230769230769,,0,-1,1768778801.0965576
1768778801104.37,1171.428571428571,,0,-1,1768778801.10437
1768778801112.1826,1169.230769230769,,0,-1,1768778801.1121826
1768778801119.995,1164.102564102564,,0,-1,1768778801.119995
1768778801127.8076,1161.904761904762,,0,-1,1768778801.1278076
1768778801135.62,1158.241758241758,,0,-1,1768778801.13562
1768778801143.4326,1164.8351648351647,,0,-1,1768778801.1434326
1768778801151.245,1168.4981684981683,,0,-1,1768778801.151245
1768778801159.0576,1170.6959706959706,,0,-1,1768778801.1590576
1768778801166.87,1170.6959706959706,,0,-1,1768778801.16687
1768778801174.6826,1167.032967032967,,0,-1,1768778801.1746826
1768778801182.495,1168.4981684981683,,0,-1,1768778801.182495
1768778801190.3076,1167.032967032967,,0,-1,1768778801.1903076
1768778801198.12,1176.5567765567764,,0,-1,1768778801.19812
1768778801205.9326,1185.3479853479853,,0,-1,1768778801.2059326
1768778801213.745,1201.4652014652013,,0,-1,1768778801.213745
1768778801221.5576,1218.3150183150185,,0,-1,1768778801.2215576
1768778801229.37,1246.8864468864467,,0,-1,1768778801.22937
1768778801237.1826,1282.7838827838827,,0,-1,1768778801.2371826
1768778801244.995,1335.5311355311355,,0,-1,1768778801.244995
1768778801252.8076,1394.8717948717947,,0,-1,1768778801.2528076
1768778801260.62,1465.201465201465,,0,-1,1768778801.26062
1768778801268.4326,1534.065934065934,,0,-1,1768778801.2684326
1768778801276.245,1608.058608058608,,0,-1,1768778801.276245
1768778801284.0576,1673.260073260073,,0,-1,1768778801.2840576
1768778801291.87,1736.263736263736,,0,-1,1768778801.29187
1768778801299.6826,1784.6153846153843,,0,-1,1768778801.2996826
1768778801307.495,1824.9084249084249,,0,-1,1768778801.307495
1768778801315.3076,1847.6190476190477,,0,-1,1768778801.3153076
1768778801323.12,1863.736263736264,,0,-1,1768778801.32312
1768778801330.9326,1867.3992673992675,,0,-1,1768778801.3309326
1768778801338.745,1868.131868131868,,0,-1,1768778801.338745
1768778801346.5576,1860.805860805861,,0,-1,1768778801.3465576
1768778801354.37,1857.142857142857,,0,-1,1768778801.35437
1768778801362.1826,1842.4908424908424,,0,-1,1768778801.3621826
1768778801369.995,1827.106227106227,,0,-1,1768778801.369995
1768778801377.8076,1803.663003663004,,0,-1,1768778801.3778076
1768778801385.62,1781.6849816849815,,0,-1,1768778801.38562
1768778801393.4326,1755.311355311355,,0,-1,1768778801.3934326
1768778801401.245,1728.937728937729,,0,-1,1768778801.401245
1768778801409.0576,1704.0293040293038,,0,-1,1768778801.4090576
1768778801416.87,1672.5274725274724,,0,-1,1768778801.41687
1768778801424.6826,1646.8864468864467,,0,-1,1768778801.4246826
1768778801432.495,1620.5128205128203,,0,-1,1768778801.432495
1768778801440.3076,1594.8717948717947,,0,-1,1768778801.4403076
1768778801448.12,1569.9633699633698,,0,-1,1768778801.44812
1768778801455.9326,1545.054945054945,,0,-1,1768778801.4559326
1768778801463.745,1523.8095238095236,,0,-1,1768778801.463745
1768778801471.5576,1506.227106227106,,0,-1,1768778801.4715576
1768778801479.37,1487.9120879120878,,0,-1,1768778801.47937
1768778801487.1826,1476.190476190476,,0,-1,1768778801.4871826
1768778801494.995,1466.6666666666663,,0,-1,1768778801.494995
1768778801502.8076,1455.6776556776556,,0,-1,1768778801.5028076
1768778801510.62,1447.6190476190477,,0,-1,1768778801.51062
1768778801518.4326,1438.8278388278388,,0,-1,1768778801.5184326
1768778801526.245,1431.5018315018317,,0,-1,1768778801.526245
1768778801534.0576,1423.4432234432234,,0,-1,1768778801.5340576
1768778801541.87,1407.3260073260071,,0,-1,1768778801.54187
1768778801549.6826,1396.3369963369962,,0,-1,1768778801.5496826
1768778801557.495,1389.0109890109889,,0,-1,1768778801.557495
1768778801565.3076,1386.8131868131868,,0,-1,1768778801.5653076
1768778801573.12,1389.0109890109889,,0,-1,1768778801.57312
1768778801580.9326,1389.0109890109889,,0,-1,1768778801.5809326
1768778801588.745,1389.7435897435896,,0,-1,1768778801.588745
1768778801596.5576,1391.2087912087911,,0,-1,1768778801.5965576
1768778801604.37,1390.4761904761904,,0,-1,1768778801.60437
1768778801612.1826,1387.5457875457876,,0,-1,1768778801.6121826
1768778801619.995,1385.3479853479853,,0,-1,1768778801.619995
1768778801627.8076,1380.2197802197802,,0,-1,1768778801.6278076
1768778801635.62,1367.7655677655678,,0,-1,1768778801.63562
1768778801643.4326,1356.043956043956,,0,-1,1768778801.6434326
1768778801651.245,1339.92673992674,,0,-1,1768778801.651245
1768778801659.0576,1320.14652014652,,0,-1,1768778801.6590576
1768778801666.87,1305.4945054945051,,0,-1,1768778801.66687
1768778801674.6826,1290.8424908424909,,0,-1,1768778801.6746826
1768778801682.495,1278.3882783882782,,0,-1,1768778801.682495
1768778801690.3076,1268.131868131868,,0,-1,1768778801.6903076
1768778801698.12,1252.7472527472526,,0,-1,1768778801.69812
1768778801705.9326,1236.6300366300366,,0,-1,1768778801.7059326
1768778801713.745,1226.3736263736264,,0,-1,1768778801.713745
1768778801721.5576,1217.5824175824175,,0,-1,1768778801.7215576
1768778801729.37,1212.4542124542124,,0,-1,1768778801.72937
1768778801737.1826,1210.2564102564102,,0,-1,1768778801.7371826
1768778801744.995,1213.1868131868132,,0,-1,1768778801.744995
1768778801752.8076,1211.7216117216117,,0,-1,1768778801.7528076
1768778801760.62,1210.2564102564102,,0,-1,1768778801.76062
1768778801768.4326,1210.2564102564102,,0,-1,1768778801.7684326
1768778801776.245,1205.128205128205,,0,-1,1768778801.776245
1768778801784.0576,1203.6630036630036,,0,-1,1768778801.7840576
1768778801791.87,1201.4652014652013,,0,-1,1768778801.79187
1768778801799.6826,1198.5347985347985,,0,-1,1768778801.7996826
1768778801807.495,1197.069597069597,,0,-1,1768778801.807495
1768778801815.3076,1199.2673992673992,,0,-1,1768778801.8153076
1768778801823.12,1204.3956043956043,,0,-1,1768778801.82312
1768778801830.9326,1206.5934065934066,,0,-1,1768778801.8309326
1768778801838.745,1205.128205128205,,0,-1,1768778801.838745
1768778801846.5576,1200.0,,0,-1,1768778801.8465576
1768778801854.37,1194.1391941391942,,0,-1,1768778801.85437
1768778801862.1826,1194.1391941391942,,0,-1,1768778801.8621826
1768778801869.995,1191.941391941392,,0,-1,1768778801.869995
1768778801877.8076,1186.080586080586,,0,-1,1768778801.8778076
1768778801885.62,1183.150183150183,,0,-1,1768778801.88562
1768778801893.4326,1185.3479853479853,,0,-1,1768778801.8934326
1768778801901.245,1187.5457875457876,,0,-1,1768778801.901245
1768778801909.0576,1187.5457875457876,,0,-1,1768778801.9090576
1768778801916.87,1189.7435897435896,,0,-1,1768778801.91687
1768778801924.6826,1192.6739926739926,,0,-1,1768778801.9246826
1768778801932.495,1196.3369963369962,,0,-1,1768778801.932495
1768778801940.3076,1197.8021978021975,,0,-1,1768778801.9403076
1768778801948.12,1197.8021978021975,,0,-1,1768778801.94812
1768778801955.9326,1193.4065934065934,,0,-1,1768778801.9559326
1768778801963.745,1187.5457875457876,,0,-1,1768778801.963745
1768778801971.5576,1182.4175824175825,,0,-1,1768778801.9715576
1768778801979.37,1178.021978021978,,0,-1,1768778801.97937
1768778801987.1826,1173.6263736263736,,0,-1,1768778801.9871826
1768778801994.995,1169.9633699633698,,0,-1,1768778801.994995
1768778802002.8076,1165.5677655677655,,0,-1,1768778802.0028076
1768778802010.62,1164.8351648351647,,0,-1,1768778802.01062
1768778802018.4326,1163.3699633699632,,0,-1,1768778802.0184326
1768778802026.245,1161.1721611721612,,0,-1,1768778802.026245
1768778802034.0576,1157.5091575091574,,0,-1,1768778802.0340576
1768778802041.87,1153.113553113553,,0,-1,1768778802.04187
1768778802049.6826,1148.7179487179487,,0,-1,1768778802.0496826
1768778802057.495,1146.5201465201465,,0,-1,1768778802.057495
1768778802065.3076,1146.5201465201465,,0,-1,1768778802.0653076
1768778802073.12,1150.9157509157508,,0,-1,1768778802.07312
1768778802080.9326,1163.3699633699632,,0,-1,1768778802.0809326
1768778802088.745,1186.080586080586,,0,-1,1768778802.088745
1768778802096.5576,1221.245421245421,,0,-1,1768778802.0965576
1768778802104.37,1268.8644688644688,,0,-1,1768778802.10437
1768778802112.1826,1330.4029304029302,,0,-1,1768778802.1121826
1768778802119.995,1402.197802197802,,0,-1,1768778802.119995
1768778802127.8076,1479.8534798534797,,0,-1,1768778802.1278076
1768778802135.62,1559.7069597069597,,0,-1,1768778802.13562
1768778802143.4326,1641.0256410256409,,0,-1,1768778802.1434326
1768778802151.245,1723.0769230769229,,0,-1,1768778802.151245
1768778802159.0576,1794.139194139194,,0,-1,1768778802.1590576
1768778802166.87,1854.9450549450548,,0,-1,1768778802.16687
1768778802174.6826,1903.296703296703,,0,-1,1768778802.1746826
1768778802182.495,1937.7289377289376,,0,-1,1768778802.182495
1768778802190.3076,1957.5091575091571,,0,-1,1768778802.1903076
1768778802198.12,1967.032967032967,,0,-1,1768778802.19812
1768778802205.9326,1973.6263736263736,,0,-1,1768778802.2059326
1768778802213.745,1978.021978021978,,0,-1,1768778802.213745
1768778802221.5576,1976.5567765567764,,0,-1,1768778802.2215576
1768778802229.37,1971.4285714285716,,0,-1,1768778802.22937
1768778802237.1826,1962.6373626373625,,0,-1,1768778802.2371826
1768778802244.995,1949.4505494505493,,0,-1,1768778802.244995
1768778802252.8076,1933.3333333333333,,0,-1,1768778802.2528076
1768778802260.62,1915.7509157509155,,0,-1,1768778802.26062
1768778802268.4326,1895.2380952380952,,0,-1,1768778802.2684326
1768778802276.245,1874.7252747252744,,0,-1,1768778802.276245
1768778802284.0576,1855.677655677656,,0,-1,1768778802.2840576
1768778802291.87,1835.897435897436,,0,-1,1768778802.29187
1768778802299.6826,1815.3846153846152,,0,-1,1768778802.2996826
1768778802307.495,1791.941391941392,,0,-1,1768778802.307495
1768778802315.3076,1767.7655677655675,,0,-1,1768778802.3153076
1768778802323.12,1744.3223443223442,,0,-1,1768778802.32312
1768778802330.9326,1722.3443223443223,,0,-1,1768778802.3309326
1768778802338.745,1695.970695970696,,0,-1,1768778802.338745
1768778802346.5576,1667.3992673992673,,0,-1,1768778802.3465576
1768778802354.37,1637.362637362637,,0,-1,1768778802.35437
1768778802362.1826,1605.128205128205,,0,-1,1768778802.3621826
1768778802369.995,1572.8937728937728,,0,-1,1768778802.369995
1768778802377.8076,1542.857142857143,,0,-1,1768778802.3778076
1768778802385.62,1519.4139194139193,,0,-1,1768778802.38562
1768778802393.4326,1503.2967032967033,,0,-1,1768778802.3934326
1768778802401.245,1491.5750915750914,,0,-1,1768778802.401245
1768778802409.0576,1482.7838827838827,,0,-1,1768778802.4090576
1768778802416.87,1474.7252747252746,,0,-1,1768778802.41687
1768778802424.6826,1468.131868131868,,0,-1,1768778802.4246826
1768778802432.495,1459.3406593406592,,0,-1,1768778802.432495
1768778802440.3076,1447.6190476190477,,0,-1,1768778802.4403076
1768778802448.12,1435.8974358974358,,0,-1,1768778802.44812
1768778802455.9326,1424.175824175824,,0,-1,1768778802.4559326
1768778802463.745,1413.9194139194135,,0,-1,1768778802.463745
1768778802471.5576,1402.9304029304028,,0,-1,1768778802.4715576
1768778802479.37,1394.8717948717947,,0,-1,1768778802.47937
1768778802487.1826,1386.080586080586,,0,-1,1768778802.4871826
1768778802494.995,1380.952380952381,,0,-1,1768778802.494995
1768778802502.8076,1378.7545787545787,,0,-1,1768778802.5028076
1768778802510.62,1374.3589743589744,,0,-1,1768778802.51062
1768778802518.4326,1367.032967032967,,0,-1,1768778802.5184326
1768778802526.245,1358.974358974359,,0,-1,1768778802.526245
1768778802534.0576,1350.18315018315,,0,-1,1768778802.5340576
1768778802541.87,1337.7289377289376,,0,-1,1768778802.54187
1768778802549.6826,1326.739926739927,,0,-1,1768778802.5496826
1768778802557.495,1318.6813186813183,,0,-1,1768778802.557495
1768778802565.3076,1312.8205128205127,,0,-1,1768778802.5653076
1768778802573.12,1306.9597069597069,,0,-1,1768778802.57312
1768778802580.9326,1301.8315018315018,,0,-1,1768778802.5809326
1768778802588.745,1294.5054945054944,,0,-1,1768778802.588745
1768778802596.5576,1284.9816849816848,,0,-1,1768778802.5965576
1768778802604.37,1276.190476190476,,0,-1,1768778802.60437
1768778802612.1826,1267.3992673992673,,0,-1,1768778802.6121826
1768778802619.995,1257.142857142857,,0,-1,1768778802.619995
1768778802627.8076,1249.8168498168498,,0,-1,1768778802.6278076
1768778802635.62,1243.956043956044,,0,-1,1768778802.63562
1768778802643.4326,1237.362637362637,,0,-1,1768778802.6434326
1768778802651.245,1230.03663003663,,0,-1,1768778802.651245
1768778802659.0576,1222.7106227106226,,0,-1,1768778802.6590576
1768778802666.87,1212.4542124542124,,0,-1,1768778802.66687
1768778802674.6826,1203.6630036630036,,0,-1,1768778802.6746826
1768778802682.495,1196.3369963369962,,0,-1,1768778802.682495
1768778802690.3076,1189.0109890109889,,0,-1,1768778802.6903076
1768778802698.12,1183.150183150183,,0,-1,1768778802.69812
1768778802705.9326,1178.021978021978,,0,-1,1768778802.7059326
1768778802713.745,1174.3589743589744,,0,-1,1768778802.713745
1768778802721.5576,1172.161172161172,,0,-1,1768778802.7215576
1768778802729.37,1172.8937728937728,,0,-1,1768778802.72937
1768778802737.1826,1172.8937728937728,,0,-1,1768778802.7371826
1768778802744.995,1170.6959706959706,,0,-1,1768778802.744995
1768778802752.8076,1167.032967032967,,0,-1,1768778802.7528076
1768778802760.62,1164.8351648351647,,0,-1,1768778802.76062
1768778802768.4326,1164.102564102564,,0,-1,1768778802.7684326
1768778802776.245,1163.3699633699632,,0,-1,1768778802.776245
1768778802784.0576,1167.7655677655678,,0,-1,1768778802.7840576
1768778802791.87,1175.0915750915751,,0,-1,1768778802.79187
1768778802799.6826,1182.4175824175825,,0,-1,1768778802.7996826
1768778802807.495,1185.3479853479853,,0,-1,1768778802.807495
1768778802815.3076,1183.150183150183,,0,-1,1768778802.8153076
1768778802823.12,1176.5567765567764,,0,-1,1768778802.82312
1768778802830.9326,1170.6959706959706,,0,-1,1768778802.8309326
1768778802838.745,1164.102564102564,,0,-1,1768778802.838745
1768778802846.5576,1156.7765567765566,,0,-1,1768778802.8465576
1768778802854.37,1149.4505494505493,,0,-1,1768778802.85437
1768778802862.1826,1143.5897435897434,,0,-1,1768778802.8621826
1768778802869.995,1137.7289377289376,,0,-1,1768778802.869995
1768778802877.8076,1134.065934065934,,0,-1,1768778802.8778076
1768778802885.62,1128.937728937729,,0,-1,1768778802.88562
1768778802893.4326,1123.8095238095236,,0,-1,1768778802.8934326
1768778802901.245,1119.4139194139193,,0,-1,1768778802.901245
1768778802909.0576,1117.2161172161173,,0,-1,1768778802.9090576
1768778802916.87,1117.9487179487178,,0,-1,1768778802.91687
1768778802924.6826,1121.6117216117216,,0,-1,1768778802.9246826
1768778802932.495,1126.007326007326,,0,-1,1768778802.932495
1768778802940.3076,1130.4029304029302,,0,-1,1768778802.9403076
1768778802948.12,1135.5311355311355,,0,-1,1768778802.94812
1768778802955.9326,1143.5897435897434,,0,-1,1768778802.9559326
1768778802963.745,1154.5787545787546,,0,-1,1768778802.963745
1768778802971.5576,1171.428571428571,,0,-1,1768778802.9715576
1768778802979.37,1190.4761904761904,,0,-1,1768778802.97937
1768778802987.1826,1216.117216117216,,0,-1,1768778802.9871826
1768778802994.995,1254.212454212454,,0,-1,1768778802.994995
1768778803002.8076,1307.6923076923076,,0,-1,1768778803.0028076
1768778803010.62,1372.161172161172,,0,-1,1768778803.01062
1768778803018.4326,1441.0256410256409,,0,-1,1768778803.0184326
1768778803026.245,1514.2857142857142,,0,-1,1768778803.026245
1768778803034.0576,1590.4761904761904,,0,-1,1768778803.0340576
1768778803041.87,1664.4688644688645,,0,-1,1768778803.04187
1768778803049.6826,1736.263736263736,,0,-1,1768778803.0496826
1768778803057.495,1800.7326007326003,,0,-1,1768778803.057495
1768778803065.3076,1854.212454212454,,0,-1,1768778803.0653076
1768778803073.12,1895.2380952380952,,0,-1,1768778803.07312
1768778803080.9326,1923.0769230769229,,0,-1,1768778803.0809326
1768778803088.745,1937.7289377289376,,0,-1,1768778803.088745
1768778803096.5576,1939.194139194139,,0,-1,1768778803.0965576
1768778803104.37,1934.7985347985348,,0,-1,1768778803.10437
1768778803112.1826,1919.4139194139195,,0,-1,1768778803.1121826
1768778803119.995,1905.4945054945051,,0,-1,1768778803.119995
1768778803127.8076,1893.7728937728937,,0,-1,1768778803.1278076
1768778803135.62,1882.051282051282,,0,-1,1768778803.13562
1768778803143.4326,1867.3992673992675,,0,-1,1768778803.1434326
1768778803151.245,1854.9450549450548,,0,-1,1768778803.151245
1768778803159.0576,1841.0256410256409,,0,-1,1768778803.1590576
1768778803166.87,1823.4432234432236,,0,-1,1768778803.16687
1768778803174.6826,1805.128205128205,,0,-1,1768778803.1746826
1768778803182.495,1787.545787545787,,0,-1,1768778803.182495
1768778803190.3076,1768.4981684981683,,0,-1,1768778803.1903076
1768778803198.12,1745.054945054945,,0,-1,1768778803.19812
1768778803205.9326,1720.8791208791208,,0,-1,1768778803.2059326
1768778803213.745,1695.970695970696,,0,-1,1768778803.213745
1768778803221.5576,1671.7948717948716,,0,-1,1768778803.2215576
1768778803229.37,1648.3516483516482,,0,-1,1768778803.22937
1768778803237.1826,1621.9780219780218,,0,-1,1768778803.2371826
1768778803244.995,1594.8717948717947,,0,-1,1768778803.244995
1768778803252.8076,1567.032967032967,,0,-1,1768778803.2528076
1768778803260.62,1537.7289377289376,,0,-1,1768778803.26062
1768778803268.4326,1512.8205128205127,,0,-1,1768778803.2684326
1768778803276.245,1491.5750915750914,,0,-1,1768778803.276245
1768778803284.0576,1474.7252747252746,,0,-1,1768778803.2840576
1768778803291.87,1457.875457875458,,0,-1,1768778803.29187
1768778803299.6826,1446.153846153846,,0,-1,1768778803.2996826
1768778803307.495,1430.7692307692307,,1,3,1768778803.307495
1768778803315.3076,1422.7106227106226,,1,3,1768778803.3153076
1768778803323.12,1412.4542124542124,,1,3,1768778803.32312
1768778803330.9326,1404.3956043956043,,1,3,1768778803.3309326
1768778803338.745,1399.2673992673992,,1,3,1768778803.338745
1768778803346.5576,1395.6043956043954,,1,3,1768778803.3465576
1768778803354.37,1395.6043956043954,,1,3,1768778803.35437
1768778803362.1826,1389.7435897435896,,1,3,1768778803.3621826
1768778803369.995,1382.4175824175825,,1,3,1768778803.369995
1768778803377.8076,1374.3589743589744,,1,3,1768778803.3778076
1768778803385.62,1367.7655677655678,,1,3,1768778803.38562
1768778803393.4326,1362.6373626373625,,1,3,1768778803.3934326
1768778803401.245,1358.241758241758,,1,3,1768778803.401245
1768778803409.0576,1354.5787545787546,,1,3,1768778803.4090576
1768778803416.87,1350.18315018315,,1,3,1768778803.41687
1768778803424.6826,1343.5897435897434,,1,3,1768778803.4246826
1768778803432.495,1334.7985347985348,,1,3,1768778803.432495
1768778803440.3076,1323.8095238095236,,1,3,1768778803.4403076
1768778803448.12,1309.1575091575091,,1,3,1768778803.44812
1768778803455.9326,1289.3772893772891,,1,3,1768778803.4559326
1768778803463.745,1272.5274725274724,,1,3,1768778803.463745
1768778803471.5576,1260.07326007326,,1,3,1768778803.4715576
1768778803479.37,1251.2820512820513,,1,3,1768778803.47937
1768778803487.1826,1243.956043956044,,1,3,1768778803.4871826
1768778803494.995,1232.967032967033,,1,3,1768778803.494995
1768778803502.8076,1224.175824175824,,1,3,1768778803.5028076
1768778803510.62,1215.3846153846152,,1,3,1768778803.51062
1768778803518.4326,1204.3956043956043,,1,3,1768778803.5184326
1768778803526.245,1201.4652014652013,,1,3,1768778803.526245
1768778803534.0576,1200.7326007326008,,1,3,1768778803.5340576
1768778803541.87,1199.2673992673992,,1,3,1768778803.54187
1768778803549.6826,1197.8021978021975,,1,3,1768778803.5496826
1768778803557.495,1195.6043956043954,,1,3,1768778803.557495
1768778803565.3076,1191.2087912087911,,1,3,1768778803.5653076
1768778803573.12,1186.080586080586,,1,3,1768778803.57312
1768778803580.9326,1186.8131868131868,,1,3,1768778803.5809326
1768778803588.745,1184.6153846153843,,1,3,1768778803.588745
1768778803596.5576,1183.8827838827838,,1,3,1768778803.5965576
1768778803604.37,1179.4871794871794,,1,3,1768778803.60437
1768778803612.1826,1169.9633699633698,,1,3,1768778803.6121826
1768778803619.995,1163.3699633699632,,1,3,1768778803.619995
1768778803627.8076,1150.9157509157508,,1,3,1768778803.6278076
1768778803635.62,1145.7875457875457,,1,3,1768778803.63562
1768778803643.4326,1141.3919413919414,,1,3,1768778803.6434326
1768778803651.245,1139.194139194139,,1,3,1768778803.651245
1768778803659.0576,1142.124542124542,,1,3,1768778803.6590576
1768778803666.87,1141.3919413919414,,1,3,1768778803.66687
1768778803674.6826,1140.6593406593406,,1,3,1768778803.6746826
1768778803682.495,1141.3919413919414,,1,3,1768778803.682495
1768778803690.3076,1138.4615384615383,,1,3,1768778803.6903076
1768778803698.12,1141.3919413919414,,1,3,1768778803.69812
1768778803705.9326,1139.194139194139,,1,3,1768778803.7059326
1768778803713.745,1142.124542124542,,1,3,1768778803.713745
1768778803721.5576,1145.054945054945,,1,3,1768778803.7215576
1768778803729.37,1147.2527472527472,,1,3,1768778803.72937
1768778803737.1826,1151.6483516483515,,1,3,1768778803.7371826
1768778803744.995,1147.2527472527472,,1,3,1768778803.744995
1768778803752.8076,1142.124542124542,,1,3,1768778803.7528076
1768778803760.62,1132.6007326007325,,1,3,1768778803.76062
1768778803768.4326,1128.2051282051282,,1,3,1768778803.7684326
1768778803776.245,1120.8791208791208,,1,3,1768778803.776245
1768778803784.0576,1117.9487179487178,,1,3,1768778803.7840576
1768778803791.87,1118.6813186813183,,1,3,1768778803.79187
1768778803799.6826,1116.4835164835165,,1,3,1768778803.7996826
1768778803807.495,1118.6813186813183,,1,3,1768778803.807495
1768778803815.3076,1119.4139194139193,,1,3,1768778803.8153076
1768778803823.12,1126.739926739927,,1,3,1768778803.82312
1768778803830.9326,1136.2637362637363,,1,3,1768778803.8309326
1768778803838.745,1137.7289377289376,,1,3,1768778803.838745
1768778803846.5576,1143.5897435897434,,1,3,1768778803.8465576
1768778803854.37,1142.857142857143,,1,3,1768778803.85437
1768778803862.1826,1141.3919413919414,,1,3,1768778803.8621826
1768778803869.995,1141.3919413919414,,1,3,1768778803.869995
1768778803877.8076,1137.7289377289376,,1,3,1768778803.8778076
1768778803885.62,1139.92673992674,,1,3,1768778803.88562
1768778803893.4326,1141.3919413919414,,1,3,1768778803.8934326
1768778803901.245,1143.5897435897434,,1,3,1768778803.901245
1768778803909.0576,1139.194139194139,,1,3,1768778803.9090576
1768778803916.87,1140.6593406593406,,1,3,1768778803.91687
1768778803924.6826,1136.9963369963368,,1,3,1768778803.9246826
1768778803932.495,1139.194139194139,,1,3,1768778803.932495
1768778803940.3076,1136.2637362637363,,1,3,1768778803.9403076
1768778803948.12,1134.065934065934,,1,3,1768778803.94812
1768778803955.9326,1134.7985347985348,,1,3,1768778803.9559326
1768778803963.745,1133.3333333333333,,1,3,1768778803.963745
1768778803971.5576,1139.92673992674,,1,3,1768778803.9715576
1768778803979.37,1145.054945054945,,1,3,1768778803.97937
1768778803987.1826,1162.6373626373625,,1,3,1768778803.9871826
1768778803994.995,1188.278388278388,,1,3,1768778803.994995
1768778804002.8076,1227.8388278388277,,1,3,1768778804.0028076
1768778804010.62,1276.190476190476,,1,3,1768778804.01062
1768778804018.4326,1338.4615384615383,,1,3,1768778804.0184326
1768778804026.245,1400.7326007326003,,1,3,1768778804.026245
1768778804034.0576,1470.3296703296703,,1,3,1768778804.0340576
1768778804041.87,1535.5311355311355,,1,3,1768778804.04187
1768778804049.6826,1601.4652014652013,,1,3,1768778804.0496826
1768778804057.495,1661.5384615384614,,1,3,1768778804.057495
1768778804065.3076,1717.216117216117,,1,3,1768778804.0653076
1768778804073.12,1762.6373626373625,,1,3,1768778804.07312
1768778804080.9326,1800.7326007326003,,1,3,1768778804.0809326
1768778804088.745,1831.5018315018317,,1,3,1768778804.088745
1768778804096.5576,1854.212454212454,,1,3,1768778804.0965576
1768778804104.37,1867.3992673992675,,1,3,1768778804.10437
1768778804112.1826,1868.8644688644688,,1,3,1768778804.1121826
1768778804119.995,1862.2710622710624,,1,3,1768778804.119995
1768778804127.8076,1849.8168498168495,,1,3,1768778804.1278076
1768778804135.62,1833.6996336996333,,1,3,1768778804.13562
1768778804143.4326,1816.8498168498168,,1,3,1768778804.1434326
1768778804151.245,1797.8021978021975,,1,3,1768778804.151245
1768778804159.0576,1781.6849816849815,,1,3,1768778804.1590576
1768778804166.87,1760.4395604395604,,1,3,1768778804.16687
1768778804174.6826,1745.054945054945,,1,3,1768778804.1746826
1768778804182.495,1726.739926739927,,1,3,1768778804.182495
1768778804190.3076,1713.5531135531137,,1,3,1768778804.1903076
1768778804198.12,1697.4358974358972,,1,3,1768778804.19812
1768778804205.9326,1684.9816849816848,,1,3,1768778804.2059326
1768778804213.745,1668.131868131868,,1,3,1768778804.213745
1768778804221.5576,1651.2820512820513,,1,3,1768778804.2215576
1768778804229.37,1627.106227106227,,1,3,1768778804.22937
1768778804237.1826,1598.5347985347985,,1,3,1768778804.2371826
1768778804244.995,1567.032967032967,,1,3,1768778804.244995
1768778804252.8076,1538.4615384615383,,1,3,1768778804.2528076
1768778804260.62,1509.89010989011,,1,3,1768778804.26062
1768778804268.4326,1484.9816849816848,,1,3,1768778804.2684326
1768778804276.245,1468.131868131868,,1,3,1768778804.276245
1768778804284.0576,1450.5494505494505,,1,3,1768778804.2840576
1768778804291.87,1439.5604395604394,,1,3,1768778804.29187
1768778804299.6826,1434.4322344322345,,1,3,1768778804.2996826
1768778804307.495,1427.8388278388277,,1,3,1768778804.307495
1768778804315.3076,1425.6410256410256,,1,3,1768778804.3153076
1768778804323.12,1421.245421245421,,1,3,1768778804.32312
1768778804330.9326,1419.7802197802198,,1,3,1768778804.3309326
1768778804338.745,1419.047619047619,,1,3,1768778804.338745
1768778804346.5576,1415.3846153846152,,1,3,1768778804.3465576
1768778804354.37,1416.117216117216,,1,3,1768778804.35437
1768778804362.1826,1412.4542124542124,,1,3,1768778804.3621826
1768778804369.995,1411.7216117216117,,1,3,1768778804.369995
1768778804377.8076,1405.128205128205,,1,3,1768778804.3778076
1768778804385.62,1400.7326007326003,,1,3,1768778804.38562
1768778804393.4326,1390.4761904761904,,1,3,1768778804.3934326
1768778804401.245,1379.4871794871794,,1,3,1768778804.401245
1768778804409.0576,1371.428571428571,,1,3,1768778804.4090576
1768778804416.87,1358.241758241758,,1,3,1768778804.41687
1768778804424.6826,1349.4505494505493,,1,3,1768778804.4246826
1768778804432.495,1339.194139194139,,1,3,1768778804.432495
1768778804440.3076,1335.5311355311355,,1,3,1768778804.4403076
1768778804448.12,1326.739926739927,,1,3,1768778804.44812
1768778804455.9326,1324.5421245421244,,1,3,1768778804.4559326
1768778804463.745,1323.076923076923,,1,3,1768778804.463745
1768778804471.5576,1325.2747252747251,,1,3,1768778804.4715576
1768778804479.37,1328.2051282051282,,1,3,1768778804.47937
1768778804487.1826,1327.4725274725274,,1,3,1768778804.4871826
1768778804494.995,1321.6117216117216,,1,3,1768778804.494995
1768778804502.8076,1309.89010989011,,1,3,1768778804.5028076
1768778804510.62,1295.2380952380952,,1,3,1768778804.51062
1768778804518.4326,1271.7948717948716,,1,3,1768778804.5184326
1768778804526.245,1253.479853479853,,1,3,1768778804.526245
1768778804534.0576,1234.4322344322345,,1,3,1768778804.5340576
1768778804541.87,1227.106227106227,,1,3,1768778804.54187
1768778804549.6826,1224.175824175824,,1,3,1768778804.5496826
1768778804557.495,1219.047619047619,,1,3,1768778804.557495
1768778804565.3076,1215.3846153846152,,1,3,1768778804.5653076
1768778804573.12,1208.7912087912086,,1,3,1768778804.57312
1768778804580.9326,1201.4652014652013,,1,3,1768778804.5809326
1768778804588.745,1197.069597069597,,1,3,1768778804.588745
1768778804596.5576,1187.5457875457876,,1,3,1768778804.5965576
1768778804604.37,1183.150183150183,,1,3,1768778804.60437
1768778804612.1826,1177.2893772893772,,1,3,1768778804.6121826
1768778804619.995,1169.230769230769,,1,3,1768778804.619995
1768778804627.8076,1164.8351648351647,,1,3,1768778804.6278076
1768778804635.62,1156.043956043956,,1,3,1768778804.63562
1768778804643.4326,1155.311355311355,,1,3,1768778804.6434326
1768778804651.245,1158.974358974359,,1,3,1768778804.651245
1768778804659.0576,1163.3699633699632,,1,3,1768778804.6590576
1768778804666.87,1176.5567765567764,,1,3,1768778804.66687
1768778804674.6826,1186.8131868131868,,1,3,1768778804.6746826
1768778804682.495,1193.4065934065934,,1,3,1768778804.682495
1768778804690.3076,1200.0,,1,3,1768778804.6903076
1768778804698.12,1204.3956043956043,,1,3,1768778804.69812
1768778804705.9326,1202.9304029304028,,1,3,1768778804.7059326
1768778804713.745,1202.197802197802,,1,3,1768778804.713745
1768778804721.5576,1208.058608058608,,1,3,1768778804.7215576
1768778804729.37,1207.3260073260074,,1,3,1768778804.72937
1768778804737.1826,1206.5934065934066,,1,3,1768778804.7371826
1768778804744.995,1203.6630036630036,,1,3,1768778804.744995
1768778804752.8076,1197.8021978021975,,1,3,1768778804.7528076
1768778804760.62,1191.2087912087911,,1,3,1768778804.76062
1768778804768.4326,1188.278388278388,,1,3,1768778804.7684326
1768778804776.245,1185.3479853479853,,1,3,1768778804.776245
1768778804784.0576,1175.8241758241757,,1,3,1768778804.7840576
1768778804791.87,1167.032967032967,,1,3,1768778804.79187
1768778804799.6826,1158.974358974359,,1,3,1768778804.7996826
1768778804807.495,1150.9157509157508,,1,3,1768778804.807495
1768778804815.3076,1140.6593406593406,,1,3,1768778804.8153076
1768778804823.12,1136.2637362637363,,1,3,1768778804.82312
1768778804830.9326,1136.2637362637363,,1,3,1768778804.8309326
1768778804838.745,1137.7289377289376,,1,3,1768778804.838745
1768778804846.5576,1137.7289377289376,,1,3,1768778804.8465576
1768778804854.37,1139.92673992674,,1,3,1768778804.85437
1768778804862.1826,1142.857142857143,,1,3,1768778804.8621826
1768778804869.995,1142.857142857143,,1,3,1768778804.869995
1768778804877.8076,1136.9963369963368,,1,3,1768778804.8778076
1768778804885.62,1132.6007326007325,,1,3,1768778804.88562
1768778804893.4326,1131.135531135531,,1,3,1768778804.8934326
1768778804901.245,1133.3333333333333,,1,3,1768778804.901245
1768778804909.0576,1134.7985347985348,,1,3,1768778804.9090576
1768778804916.87,1135.5311355311355,,1,3,1768778804.91687
1768778804924.6826,1139.194139194139,,1,3,1768778804.9246826
1768778804932.495,1153.113553113553,,1,3,1768778804.932495
1768778804940.3076,1174.3589743589744,,1,3,1768778804.9403076
1768778804948.12,1200.0,,1,3,1768778804.94812
1768778804955.9326,1228.5714285714284,,1,3,1768778804.9559326
1768778804963.745,1260.07326007326,,1,3,1768778804.963745
1768778804971.5576,1299.6336996336995,,1,3,1768778804.9715576
1768778804979.37,1347.2527472527472,,1,3,1768778804.97937
1768778804987.1826,1404.3956043956043,,1,3,1768778804.9871826
1768778804994.995,1467.3992673992673,,1,3,1768778804.994995
1768778805002.8076,1528.937728937729,,1,3,1768778805.0028076
1768778805010.62,1584.6153846153843,,1,3,1768778805.01062
1768778805018.4326,1631.5018315018317,,1,3,1768778805.0184326
1768778805026.245,1670.3296703296703,,1,3,1768778805.026245
1768778805034.0576,1699.6336996336995,,1,3,1768778805.0340576
1768778805041.87,1724.5421245421244,,1,3,1768778805.04187
1768778805049.6826,1743.5897435897434,,1,3,1768778805.0496826
1768778805057.495,1756.7765567765566,,1,3,1768778805.057495
1768778805065.3076,1762.6373626373625,,1,3,1768778805.0653076
1768778805073.12,1759.7069597069597,,1,3,1768778805.07312
1768778805080.9326,1750.18315018315,,1,3,1768778805.0809326
1768778805088.745,1739.194139194139,,1,3,1768778805.088745
1768778805096.5576,1728.937728937729,,1,3,1768778805.0965576
1768778805104.37,1717.9487179487178,,1,3,1768778805.10437
1768778805112.1826,1704.7619047619046,,1,3,1768778805.1121826
1768778805119.995,1690.10989010989,,1,3,1768778805.119995
1768778805127.8076,1671.0622710622708,,1,3,1768778805.1278076
1768778805135.62,1651.2820512820513,,1,3,1768778805.13562
1768778805143.4326,1631.5018315018317,,1,3,1768778805.1434326
1768778805151.245,1610.2564102564102,,1,3,1768778805.151245
1768778805159.0576,1586.8131868131868,,1,3,1768778805.1590576
1768778805166.87,1562.6373626373625,,1,3,1768778805.16687
1768778805174.6826,1537.7289377289376,,1,3,1768778805.1746826
1768778805182.495,1512.8205128205127,,1,3,1768778805.182495
1768778805190.3076,1490.10989010989,,1,3,1768778805.1903076
1768778805198.12,1468.131868131868,,1,3,1768778805.19812
1768778805205.9326,1448.3516483516482,,1,3,1768778805.2059326
1768778805213.745,1435.164835164835,,1,3,1768778805.213745
1768778805221.5576,1426.3736263736262,,1,3,1768778805.2215576
1768778805229.37,1421.245421245421,,1,3,1768778805.22937
1768778805237.1826,1420.5128205128203,,1,3,1768778805.2371826
1768778805244.995,1419.047619047619,,1,3,1768778805.244995
1768778805252.8076,1418.3150183150185,,1,3,1768778805.2528076
1768778805260.62,1417.5824175824175,,1,3,1768778805.26062
1768778805268.4326,1419.047619047619,,1,3,1768778805.2684326
1768778805276.245,1422.7106227106226,,1,3,1768778805.276245
1768778805284.0576,1426.3736263736262,,1,3,1768778805.2840576
1768778805291.87,1427.8388278388277,,0,-1,1768778805.29187
1768778805299.6826,1426.3736263736262,,0,-1,1768778805.2996826
1768778805307.495,1422.7106227106226,,0,-1,1768778805.307495
1768778805315.3076,1416.8498168498168,,0,-1,1768778805.3153076
1768778805323.12,1408.7912087912086,,0,-1,1768778805.32312
1768778805330.9326,1397.8021978021975,,0,-1,1768778805.3309326
1768778805338.745,1386.080586080586,,0,-1,1768778805.338745
1768778805346.5576,1376.5567765567764,,0,-1,1768778805.3465576
1768778805354.37,1369.9633699633698,,0,-1,1768778805.35437
1768778805362.1826,1363.3699633699632,,0,-1,1768778805.3621826
1768778805369.995,1356.043956043956,,0,-1,1768778805.369995
1768778805377.8076,1348.7179487179487,,0,-1,1768778805.3778076
1768778805385.62,1343.5897435897434,,0,-1,1768778805.38562
1768778805393.4326,1336.9963369963368,,0,-1,1768778805.3934326
1768778805401.245,1326.007326007326,,0,-1,1768778805.401245
1768778805409.0576,1315.018315018315,,0,-1,1768778805.4090576
1768778805416.87,1306.227106227106,,0,-1,1768778805.41687
1768778805424.6826,1298.168498168498,,0,-1,1768778805.4246826
1768778805432.495,1289.3772893772891,,0,-1,1768778805.432495
1768778805440.3076,1282.051282051282,,0,-1,1768778805.4403076
1768778805448.12,1278.3882783882782,,0,-1,1768778805.44812
1768778805455.9326,1277.6556776556777,,0,-1,1768778805.4559326
1768778805463.745,1275.4578754578754,,0,-1,1768778805.463745
1768778805471.5576,1271.7948717948716,,0,-1,1768778805.4715576
1768778805479.37,1265.9340659340658,,0,-1,1768778805.47937
1768778805487.1826,1261.5384615384614,,0,-1,1768778805.4871826
1768778805494.995,1249.8168498168498,,0,-1,1768778805.494995
1768778805502.8076,1238.8278388278388,,0,-1,1768778805.5028076
1768778805510.62,1227.106227106227,,0,-1,1768778805.51062
1768778805518.4326,1216.8498168498168,,0,-1,1768778805.5184326
1768778805526.245,1211.7216117216117,,0,-1,1768778805.526245
1768778805534.0576,1207.3260073260074,,0,-1,1768778805.5340576
1768778805541.87,1202.197802197802,,0,-1,1768778805.54187
1768778805549.6826,1200.0,,0,-1,1768778805.5496826
1768778805557.495,1200.0,,0,-1,1768778805.557495
1768778805565.3076,1200.7326007326008,,0,-1,1768778805.5653076
1768778805573.12,1202.9304029304028,,0,-1,1768778805.57312
1768778805580.9326,1205.8608058608058,,0,-1,1768778805.5809326
1768778805588.745,1211.7216117216117,,0,-1,1768778805.588745
1768778805596.5576,1216.117216117216,,0,-1,1768778805.5965576
1768778805604.37,1216.8498168498168,,0,-1,1768778805.60437
1768778805612.1826,1216.117216117216,,0,-1,1768778805.6121826
1768778805619.995,1213.9194139194135,,0,-1,1768778805.619995
1768778805627.8076,1213.9194139194135,,0,-1,1768778805.6278076
1768778805635.62,1209.5238095238094,,0,-1,1768778805.63562
1768778805643.4326,1202.9304029304028,,0,-1,1768778805.6434326
1768778805651.245,1191.2087912087911,,0,-1,1768778805.651245
1768778805659.0576,1182.4175824175825,,0,-1,1768778805.6590576
1768778805666.87,1182.4175824175825,,0,-1,1768778805.66687
1768778805674.6826,1183.8827838827838,,0,-1,1768778805.6746826
1768778805682.495,1186.8131868131868,,0,-1,1768778805.682495
1768778805690.3076,1189.0109890109889,,0,-1,1768778805.6903076
1768778805698.12,1193.4065934065934,,0,-1,1768778805.69812
1768778805705.9326,1194.1391941391942,,0,-1,1768778805.7059326
1768778805713.745,1191.941391941392,,0,-1,1768778805.713745
1768778805721.5576,1186.8131868131868,,0,-1,1768778805.7215576
1768778805729.37,1178.7545787545787,,0,-1,1768778805.72937
1768778805737.1826,1169.230769230769,,0,-1,1768778805.7371826
1768778805744.995,1160.4395604395604,,0,-1,1768778805.744995
1768778805752.8076,1156.043956043956,,0,-1,1768778805.7528076
1768778805760.62,1153.113553113553,,0,-1,1768778805.76062
1768778805768.4326,1152.3809523809523,,0,-1,1768778805.7684326
1768778805776.245,1156.043956043956,,0,-1,1768778805.776245
1768778805784.0576,1167.032967032967,,0,-1,1768778805.7840576
1768778805791.87,1185.3479853479853,,0,-1,1768778805.79187
1768778805799.6826,1211.7216117216117,,0,-1,1768778805.7996826
1768778805807.495,1244.688644688645,,0,-1,1768778805.807495
1768778805815.3076,1282.7838827838827,,0,-1,1768778805.8153076
1768778805823.12,1327.4725274725274,,0,-1,1768778805.82312
1768778805830.9326,1379.4871794871794,,0,-1,1768778805.8309326
1768778805838.745,1441.7582417582416,,0,-1,1768778805.838745
1768778805846.5576,1509.1575091575091,,0,-1,1768778805.8465576
1768778805854.37,1577.2893772893772,,0,-1,1768778805.85437
1768778805862.1826,1643.2234432234432,,0,-1,1768778805.8621826
1768778805869.995,1700.3663003663005,,0,-1,1768778805.869995
1768778805877.8076,1744.3223443223442,,0,-1,1768778805.8778076
1768778805885.62,1774.358974358974,,0,-1,1768778805.88562
1768778805893.4326,1797.069597069597,,0,-1,1768778805.8934326
1768778805901.245,1811.721611721612,,0,-1,1768778805.901245
1768778805909.0576,1819.78021978022,,0,-1,1768778805.9090576
1768778805916.87,1819.78021978022,,0,-1,1768778805.91687
1768778805924.6826,1812.4542124542124,,0,-1,1768778805.9246826
1768778805932.495,1802.9304029304028,,0,-1,1768778805.932495
1768778805940.3076,1790.4761904761904,,0,-1,1768778805.9403076
1768778805948.12,1776.5567765567764,,0,-1,1768778805.94812
1768778805955.9326,1760.4395604395604,,0,-1,1768778805.9559326
1768778805963.745,1743.5897435897434,,0,-1,1768778805.963745
1768778805971.5576,1726.007326007326,,0,-1,1768778805.9715576
1768778805979.37,1706.227106227106,,0,-1,1768778805.97937
1768778805987.1826,1690.10989010989,,0,-1,1768778805.9871826
1768778805994.995,1676.923076923077,,0,-1,1768778805.994995
1768778806002.8076,1663.7362637362637,,0,-1,1768778806.0028076
1768778806010.62,1650.5494505494505,,0,-1,1768778806.01062
1768778806018.4326,1634.4322344322345,,0,-1,1768778806.0184326
1768778806026.245,1617.5824175824175,,0,-1,1768778806.026245
1768778806034.0576,1599.2673992673992,,0,-1,1768778806.0340576
1768778806041.87,1579.4871794871794,,0,-1,1768778806.04187
1768778806049.6826,1557.5091575091574,,0,-1,1768778806.0496826
1768778806057.495,1535.5311355311355,,0,-1,1768778806.057495
1768778806065.3076,1515.018315018315,,0,-1,1768778806.0653076
1768778806073.12,1497.4358974358972,,0,-1,1768778806.07312
1768778806080.9326,1484.9816849816848,,0,-1,1768778806.0809326
1768778806088.745,1473.260073260073,,0,-1,1768778806.088745
1768778806096.5576,1459.3406593406592,,0,-1,1768778806.0965576
1768778806104.37,1449.8168498168498,,0,-1,1768778806.10437
1768778806112.1826,1441.7582417582416,,0,-1,1768778806.1121826
1768778806119.995,1432.2344322344322,,0,-1,1768778806.119995
1768778806127.8076,1423.4432234432234,,0,-1,1768778806.1278076
1768778806135.62,1418.3150183150185,,0,-1,1768778806.13562
1768778806143.4326,1416.8498168498168,,0,-1,1768778806.1434326
1768778806151.245,1415.3846153846152,,0,-1,1768778806.151245
1768778806159.0576,1416.8498168498168,,0,-1,1768778806.1590576
1768778806166.87,1418.3150183150185,,0,-1,1768778806.16687
1768778806174.6826,1419.7802197802198,,0,-1,1768778806.1746826
1768778806182.495,1415.3846153846152,,0,-1,1768778806.182495
1768778806190.3076,1409.5238095238094,,0,-1,1768778806.1903076
1768778806198.12,1403.6630036630036,,0,-1,1768778806.19812
1768778806205.9326,1395.6043956043954,,0,-1,1768778806.2059326
1768778806213.745,1385.3479853479853,,0,-1,1768778806.213745
1768778806221.5576,1373.6263736263736,,0,-1,1768778806.2215576
1768778806229.37,1365.5677655677655,,0,-1,1768778806.22937
1768778806237.1826,1361.904761904762,,0,-1,1768778806.2371826
1768778806244.995,1356.043956043956,,0,-1,1768778806.244995
1768778806252.8076,1344.3223443223442,,0,-1,1768778806.2528076
1768778806260.62,1330.4029304029302,,0,-1,1768778806.26062
1768778806268.4326,1320.14652014652,,0,-1,1768778806.2684326
1768778806276.245,1310.6227106227104,,0,-1,1768778806.276245
1768778806284.0576,1299.6336996336995,,0,-1,1768778806.2840576
1768778806291.87,1290.8424908424909,,0,-1,1768778806.29187
1768778806299.6826,1276.923076923077,,0,-1,1768778806.2996826
1768778806307.495,1263.003663003663,,0,-1,1768778806.307495
1768778806315.3076,1252.014652014652,,0,-1,1768778806.3153076
1768778806323.12,1242.4908424908424,,0,-1,1768778806.32312
1768778806330.9326,1232.2344322344322,,0,-1,1768778806.3309326
1768778806338.745,1221.245421245421,,0,-1,1768778806.338745
1768778806346.5576,1210.989010989011,,0,-1,1768778806.3465576
1768778806354.37,1202.197802197802,,0,-1,1768778806.35437
1768778806362.1826,1193.4065934065934,,0,-1,1768778806.3621826
1768778806369.995,1187.5457875457876,,0,-1,1768778806.369995
1768778806377.8076,1186.080586080586,,0,-1,1768778806.3778076
1768778806385.62,1186.080586080586,,0,-1,1768778806.38562
1768778806393.4326,1186.080586080586,,0,-1,1768778806.3934326
1768778806401.245,1186.080586080586,,0,-1,1768778806.401245
1768778806409.0576,1185.3479853479853,,0,-1,1768778806.4090576
1768778806416.87,1186.8131868131868,,0,-1,1768778806.41687
1768778806424.6826,1192.6739926739926,,0,-1,1768778806.4246826
1768778806432.495,1198.5347985347985,,0,-1,1768778806.432495
1768778806440.3076,1204.3956043956043,,0,-1,1768778806.4403076
1768778806448.12,1208.058608058608,,0,-1,1768778806.44812
1768778806455.9326,1211.7216117216117,,0,-1,1768778806.4559326
1768778806463.745,1214.6520146520145,,0,-1,1768778806.463745
1768778806471.5576,1213.9194139194135,,0,-1,1768778806.4715576
1768778806479.37,1211.7216117216117,,0,-1,1768778806.47937
1768778806487.1826,1211.7216117216117,,0,-1,1768778806.4871826
1768778806494.995,1213.9194139194135,,0,-1,1768778806.494995
1768778806502.8076,1211.7216117216117,,0,-1,1768778806.5028076
1768778806510.62,1213.1868131868132,,0,-1,1768778806.51062
1768778806518.4326,1212.4542124542124,,0,-1,1768778806.5184326
1768778806526.245,1208.058608058608,,0,-1,1768778806.526245
1768778806534.0576,1197.069597069597,,0,-1,1768778806.5340576
1768778806541.87,1185.3479853479853,,0,-1,1768778806.54187
1768778806549.6826,1173.6263736263736,,0,-1,1768778806.5496826
1768778806557.495,1164.102564102564,,0,-1,1768778806.557495
1768778806565.3076,1159.7069597069597,,0,-1,1768778806.5653076
1768778806573.12,1153.113553113553,,0,-1,1768778806.57312
1768778806580.9326,1150.18315018315,,0,-1,1768778806.5809326
1768778806588.745,1152.3809523809523,,0,-1,1768778806.588745
1768778806596.5576,1156.043956043956,,0,-1,1768778806.5965576
1768778806604.37,1160.4395604395604,,0,-1,1768778806.60437
1768778806612.1826,1169.230769230769,,0,-1,1768778806.6121826
1768778806619.995,1173.6263736263736,,0,-1,1768778806.619995
1768778806627.8076,1179.4871794871794,,0,-1,1768778806.6278076
1768778806635.62,1182.4175824175825,,0,-1,1768778806.63562
1768778806643.4326,1178.7545787545787,,0,-1,1768778806.6434326
1768778806651.245,1173.6263736263736,,0,-1,1768778806.651245
1768778806659.0576,1172.8937728937728,,0,-1,1768778806.6590576
1768778806666.87,1172.8937728937728,,0,-1,1768778806.66687
1768778806674.6826,1167.032967032967,,0,-1,1768778806.6746826
1768778806682.495,1164.8351648351647,,0,-1,1768778806.682495
1768778806690.3076,1165.5677655677655,,0,-1,1768778806.6903076
1768778806698.12,1170.6959706959706,,0,-1,1768778806.69812
1768778806705.9326,1186.080586080586,,0,-1,1768778806.7059326
1768778806713.745,1212.4542124542124,,0,-1,1768778806.713745
1768778806721.5576,1252.014652014652,,0,-1,1768778806.7215576
1768778806729.37,1303.2967032967033,,0,-1,1768778806.72937
1768778806737.1826,1364.102564102564,,0,-1,1768778806.7371826
1768778806744.995,1432.9670329670328,,0,-1,1768778806.744995
1768778806752.8076,1510.6227106227104,,0,-1,1768778806.7528076
1768778806760.62,1581.6849816849815,,0,-1,1768778806.76062
1768778806768.4326,1655.6776556776556,,0,-1,1768778806.7684326
1768778806776.245,1718.6813186813183,,0,-1,1768778806.776245
1768778806784.0576,1775.8241758241757,,0,-1,1768778806.7840576
1768778806791.87,1824.9084249084249,,0,-1,1768778806.79187
1768778806799.6826,1871.0622710622708,,0,-1,1768778806.7996826
1768778806807.495,1906.227106227106,,0,-1,1768778806.807495
1768778806815.3076,1930.4029304029305,,0,-1,1768778806.8153076
1768778806823.12,1947.985347985348,,0,-1,1768778806.82312
1768778806830.9326,1953.8461538461536,,0,-1,1768778806.8309326
1768778806838.745,1952.3809523809523,,0,-1,1768778806.838745
1768778806846.5576,1942.857142857143,,0,-1,1768778806.8465576
1768778806854.37,1931.135531135531,,0,-1,1768778806.85437
1768778806862.1826,1915.018315018315,,0,-1,1768778806.8621826
1768778806869.995,1896.7032967032965,,0,-1,1768778806.869995
1768778806877.8076,1876.923076923077,,0,-1,1768778806.8778076
1768778806885.62,1858.6080586080584,,0,-1,1768778806.88562
1768778806893.4326,1844.688644688645,,0,-1,1768778806.8934326
1768778806901.245,1827.838827838828,,0,-1,1768778806.901245
1768778806909.0576,1811.721611721612,,0,-1,1768778806.9090576
1768778806916.87,1798.5347985347985,,0,-1,1768778806.91687
1768778806924.6826,1790.4761904761904,,0,-1,1768778806.9246826
1768778806932.495,1780.2197802197802,,0,-1,1768778806.932495
1768778806940.3076,1769.230769230769,,0,-1,1768778806.9403076
1768778806948.12,1756.7765567765566,,0,-1,1768778806.94812
1768778806955.9326,1736.9963369963368,,0,-1,1768778806.9559326
1768778806963.745,1709.8901098901097,,0,-1,1768778806.963745
1768778806971.5576,1682.7838827838827,,0,-1,1768778806.9715576
1768778806979.37,1654.212454212454,,0,-1,1768778806.97937
1768778806987.1826,1623.4432234432234,,0,-1,1768778806.9871826
1768778806994.995,1591.941391941392,,0,-1,1768778806.994995
1768778807002.8076,1567.032967032967,,0,-1,1768778807.0028076
1768778807010.62,1547.2527472527472,,0,-1,1768778807.01062
1768778807018.4326,1528.937728937729,,0,-1,1768778807.0184326
1768778807026.245,1512.087912087912,,0,-1,1768778807.026245
1768778807034.0576,1501.098901098901,,0,-1,1768778807.0340576
1768778807041.87,1490.8424908424906,,0,-1,1768778807.04187
1768778807049.6826,1481.3186813186812,,0,-1,1768778807.0496826
1768778807057.495,1477.6556776556777,,0,-1,1768778807.057495
1768778807065.3076,1478.3882783882782,,0,-1,1768778807.0653076
1768778807073.12,1473.992673992674,,0,-1,1768778807.07312
1768778807080.9326,1473.992673992674,,0,-1,1768778807.0809326
1768778807088.745,1471.7948717948716,,0,-1,1768778807.088745
1768778807096.5576,1464.4688644688645,,0,-1,1768778807.0965576
1768778807104.37,1458.6080586080584,,0,-1,1768778807.10437
1768778807112.1826,1452.014652014652,,0,-1,1768778807.1121826
1768778807119.995,1443.956043956044,,0,-1,1768778807.119995
1768778807127.8076,1431.5018315018317,,0,-1,1768778807.1278076
1768778807135.62,1416.117216117216,,0,-1,1768778807.13562
1768778807143.4326,1402.197802197802,,0,-1,1768778807.1434326
1768778807151.245,1389.7435897435896,,0,-1,1768778807.151245
1768778807159.0576,1376.5567765567764,,0,-1,1768778807.1590576
1768778807166.87,1361.904761904762,,0,-1,1768778807.16687
1768778807174.6826,1352.3809523809523,,0,-1,1768778807.1746826
1768778807182.495,1345.7875457875457,,0,-1,1768778807.182495
1768778807190.3076,1334.065934065934,,0,-1,1768778807.1903076
1768778807198.12,1324.5421245421244,,0,-1,1768778807.19812
1768778807205.9326,1318.6813186813183,,0,-1,1768778807.2059326
1768778807213.745,1310.6227106227104,,0,-1,1768778807.213745
1768778807221.5576,1299.6336996336995,,0,-1,1768778807.2215576
1768778807229.37,1288.6446886446886,,0,-1,1768778807.22937
1768778807237.1826,1278.3882783882782,,0,-1,1768778807.2371826
1768778807244.995,1268.8644688644688,,0,-1,1768778807.244995
1768778807252.8076,1258.6080586080586,,0,-1,1768778807.2528076
1768778807260.62,1252.7472527472526,,0,-1,1768778807.26062
1768778807268.4326,1248.3516483516482,,0,-1,1768778807.2684326
1768778807276.245,1239.5604395604396,,0,-1,1768778807.276245
1768778807284.0576,1234.4322344322345,,0,-1,1768778807.2840576
1768778807291.87,1233.6996336996335,,0,-1,1768778807.29187
1768778807299.6826,1228.5714285714284,,0,-1,1768778807.2996826
1768778807307.495,1224.9084249084249,,0,-1,1768778807.307495
1768778807315.3076,1217.5824175824175,,0,-1,1768778807.3153076
1768778807323.12,1210.989010989011,,0,-1,1768778807.32312
1768778807330.9326,1207.3260073260074,,0,-1,1768778807.3309326
1768778807338.745,1200.7326007326008,,0,-1,1768778807.338745
1768778807346.5576,1199.2673992673992,,0,-1,1768778807.3465576
1768778807354.37,1200.0,,0,-1,1768778807.35437
1768778807362.1826,1196.3369963369962,,0,-1,1768778807.3621826
1768778807369.995,1194.8717948717947,,0,-1,1768778807.369995
1768778807377.8076,1192.6739926739926,,0,-1,1768778807.3778076
1768778807385.62,1192.6739926739926,,0,-1,1768778807.38562
1768778807393.4326,1194.1391941391942,,0,-1,1768778807.3934326
1768778807401.245,1192.6739926739926,,0,-1,1768778807.401245
1768778807409.0576,1194.1391941391942,,0,-1,1768778807.4090576
1768778807416.87,1189.0109890109889,,0,-1,1768778807.41687
1768778807424.6826,1186.8131868131868,,0,-1,1768778807.4246826
1768778807432.495,1181.6849816849815,,0,-1,1768778807.432495
1768778807440.3076,1179.4871794871794,,0,-1,1768778807.4403076
1768778807448.12,1175.8241758241757,,0,-1,1768778807.44812
1768778807455.9326,1171.428571428571,,0,-1,1768778807.4559326
1768778807463.745,1172.8937728937728,,0,-1,1768778807.463745
1768778807471.5576,1177.2893772893772,,0,-1,1768778807.4715576
1768778807479.37,1182.4175824175825,,0,-1,1768778807.47937
1768778807487.1826,1184.6153846153843,,0,-1,1768778807.4871826
1768778807494.995,1184.6153846153843,,0,-1,1768778807.494995
1768778807502.8076,1183.150183150183,,0,-1,1768778807.5028076
1768778807510.62,1188.278388278388,,0,-1,1768778807.51062
1768778807518.4326,1188.278388278388,,0,-1,1768778807.5184326
1768778807526.245,1187.5457875457876,,0,-1,1768778807.526245
1768778807534.0576,1184.6153846153843,,0,-1,1768778807.5340576
1768778807541.87,1175.8241758241757,,0,-1,1768778807.54187
1768778807549.6826,1169.9633699633698,,0,-1,1768778807.5496826
1768778807557.495,1161.1721611721612,,0,-1,1768778807.557495
1768778807565.3076,1161.1721611721612,,0,-1,1768778807.5653076
1768778807573.12,1157.5091575091574,,0,-1,1768778807.57312
1768778807580.9326,1157.5091575091574,,0,-1,1768778807.5809326
1768778807588.745,1158.974358974359,,0,-1,1768778807.588745
1768778807596.5576,1156.7765567765566,,0,-1,1768778807.5965576
1768778807604.37,1156.043956043956,,0,-1,1768778807.60437
1768778807612.1826,1152.3809523809523,,0,-1,1768778807.6121826
1768778807619.995,1150.9157509157508,,0,-1,1768778807.619995
1768778807627.8076,1151.6483516483515,,0,-1,1768778807.6278076
1768778807635.62,1149.4505494505493,,0,-1,1768778807.63562
1768778807643.4326,1150.9157509157508,,1,4,1768778807.6434326
1768778807651.245,1148.7179487179487,,1,4,1768778807.651245
1768778807659.0576,1145.7875457875457,,1,4,1768778807.6590576
1768778807666.87,1151.6483516483515,,1,4,1768778807.66687
1768778807674.6826,1161.904761904762,,1,4,1768778807.6746826
1768778807682.495,1185.3479853479853,,1,4,1768778807.682495
1768778807690.3076,1212.4542124542124,,1,4,1768778807.6903076
1768778807698.12,1255.6776556776556,,1,4,1768778807.69812
1768778807705.9326,1301.8315018315018,,1,4,1768778807.7059326
1768778807713.745,1361.904761904762,,1,4,1768778807.713745
1768778807721.5576,1424.175824175824,,1,4,1768778807.7215576
1768778807729.37,1498.9010989010987,,1,4,1768778807.72937
1768778807737.1826,1575.8241758241757,,1,4,1768778807.7371826
1768778807744.995,1646.8864468864467,,1,4,1768778807.744995
1768778807752.8076,1717.9487179487178,,1,4,1768778807.7528076
1768778807760.62,1778.021978021978,,1,4,1768778807.76062
1768778807768.4326,1831.5018315018317,,1,4,1768778807.7684326
1768778807776.245,1871.0622710622708,,1,4,1768778807.776245
1768778807784.0576,1896.7032967032965,,1,4,1768778807.7840576
1768778807791.87,1917.9487179487176,,1,4,1768778807.79187
1768778807799.6826,1929.6703296703292,,1,4,1768778807.7996826
1768778807807.495,1936.9963369963368,,1,4,1768778807.807495
1768778807815.3076,1937.7289377289376,,1,4,1768778807.8153076
1768778807823.12,1936.9963369963368,,1,4,1768778807.82312
1768778807830.9326,1931.135531135531,,1,4,1768778807.8309326
1768778807838.745,1920.8791208791208,,1,4,1768778807.838745
1768778807846.5576,1909.8901098901097,,1,4,1768778807.8465576
1768778807854.37,1892.307692307692,,1,4,1768778807.85437
1768778807862.1826,1877.6556776556772,,1,4,1768778807.8621826
1768778807869.995,1858.6080586080584,,1,4,1768778807.869995
1768778807877.8076,1840.29304029304,,1,4,1768778807.8778076
1768778807885.62,1823.4432234432236,,1,4,1768778807.88562
1768778807893.4326,1802.9304029304028,,1,4,1768778807.8934326
1768778807901.245,1786.080586080586,,1,4,1768778807.901245
