Shimmer_6815_Timestamp_Unix_CAL,Shimmer_6815_PPG_A13_CAL,Unnamed: 2,inhale,inhale_id,epoch_sec
1768788172525.5432,69.59706959706959,,0,-1,1768788172.5255432
1768788172533.3557,173.6263736263736,,0,-1,1768788172.5333557
1768788172541.1682,295.23809523809524,,0,-1,1768788172.5411682
1768788172548.9807,421.2454212454212,,0,-1,1768788172.5489807
1768788172556.7932,540.6593406593406,,0,-1,1768788172.5567932
1768788172564.6057,650.5494505494505,,0,-1,1768788172.5646057
1768788172572.4182,751.6483516483516,,0,-1,1768788172.5724182
1768788172580.2307,841.025641025641,,0,-1,1768788172.5802307
1768788172588.0432,918.6813186813188,,0,-1,1768788172.5880432
1768788172595.8557,983.1501831501832,,0,-1,1768788172.5958557
1768788172603.6682,1043.2234432234432,,0,-1,1768788172.6036682
1768788172611.4807,1095.2380952380952,,0,-1,1768788172.6114807
1768788172619.2932,1137.7289377289376,,0,-1,1768788172.6192932
1768788172627.1057,1170.6959706959706,,0,-1,1768788172.6271057
1768788172634.9182,1195.6043956043954,,0,-1,1768788172.6349182
1768788172642.7307,1213.1868131868132,,0,-1,1768788172.6427307
1768788172650.5432,1227.106227106227,,0,-1,1768788172.6505432
1768788172658.3557,1231.5018315018317,,0,-1,1768788172.6583557
1768788172666.1682,1235.164835164835,,0,-1,1768788172.6661682
1768788172673.9807,1242.4908424908424,,0,-1,1768788172.6739807
1768788172681.7932,1246.8864468864467,,0,-1,1768788172.6817932
1768788172689.6057,1250.5494505494505,,0,-1,1768788172.6896057
1768788172697.4182,1257.142857142857,,0,-1,1768788172.6974182
1768788172705.2307,1264.4688644688645,,0,-1,1768788172.7052307
1768788172713.0432,1266.6666666666663,,0,-1,1768788172.7130432
1768788172720.8557,1268.8644688644688,,0,-1,1768788172.7208557
1768788172728.6682,1274.7252747252746,,0,-1,1768788172.7286682
1768788172736.4807,1282.051282051282,,0,-1,1768788172.7364807
1768788172744.2932,1285.7142857142856,,0,-1,1768788172.7442932
1768788172752.1057,1284.9816849816848,,0,-1,1768788172.7521057
1768788172759.9182,1284.2490842490845,,0,-1,1768788172.7599182
1768788172767.7307,1283.5164835164835,,0,-1,1768788172.7677307
1768788172775.5432,1279.8534798534797,,0,-1,1768788172.7755432
1768788172783.3557,1279.8534798534797,,0,-1,1768788172.7833557
1768788172791.1682,1277.6556776556777,,0,-1,1768788172.7911682
1768788172798.9807,1273.260073260073,,0,-1,1768788172.7989807
1768788172806.7932,1268.131868131868,,0,-1,1768788172.8067932
1768788172814.6057,1266.6666666666663,,0,-1,1768788172.8146057
1768788172822.4182,1268.131868131868,,0,-1,1768788172.8224182
1768788172830.2307,1265.9340659340658,,0,-1,1768788172.8302307
1768788172838.0432,1265.9340659340658,,0,-1,1768788172.8380432
1768788172845.8557,1266.6666666666663,,0,-1,1768788172.8458557
1768788172853.6682,1265.9340659340658,,0,-1,1768788172.8536682
1768788172861.4807,1264.4688644688645,,0,-1,1768788172.8614807
1768788172869.2932,1265.9340659340658,,0,-1,1768788172.8692932
1768788172877.1057,1262.2710622710622,,0,-1,1768788172.8771057
1768788172884.9182,1258.6080586080586,,0,-1,1768788172.8849182
1768788172892.7307,1259.3406593406592,,0,-1,1768788172.8927307
1768788172900.5432,1255.6776556776556,,0,-1,1768788172.9005432
1768788172908.3557,1253.479853479853,,0,-1,1768788172.9083557
1768788172916.1682,1249.8168498168498,,0,-1,1768788172.9161682
1768788172923.9807,1239.5604395604396,,0,-1,1768788172.9239807
1768788172931.7932,1230.7692307692307,,0,-1,1768788172.9317932
1768788172939.6057,1229.3040293040292,,0,-1,1768788172.9396057
1768788172947.4182,1232.2344322344322,,0,-1,1768788172.9474182
1768788172955.2307,1239.5604395604396,,0,-1,1768788172.9552307
1768788172963.0432,1241.7582417582416,,0,-1,1768788172.9630432
1768788172970.8557,1246.8864468864467,,0,-1,1768788172.9708557
1768788172978.6682,1247.6190476190477,,0,-1,1768788172.9786682
1768788172986.4807,1247.6190476190477,,0,-1,1768788172.9864807
1768788172994.2932,1245.4212454212454,,0,-1,1768788172.9942932
1768788173002.1057,1238.095238095238,,0,-1,1768788173.0021057
1768788173009.9182,1238.095238095238,,0,-1,1768788173.0099182
1768788173017.7307,1239.5604395604396,,0,-1,1768788173.0177307
1768788173025.5432,1246.8864468864467,,0,-1,1768788173.0255432
1768788173033.3557,1257.142857142857,,0,-1,1768788173.0333557
1768788173041.1682,1264.4688644688645,,0,-1,1768788173.0411682
1768788173048.9807,1271.7948717948716,,0,-1,1768788173.0489807
1768788173056.7932,1277.6556776556777,,0,-1,1768788173.0567932
1768788173064.6057,1276.190476190476,,0,-1,1768788173.0646057
1768788173072.4182,1274.7252747252746,,0,-1,1768788173.0724182
1768788173080.2307,1271.062271062271,,0,-1,1768788173.0802307
1768788173088.0432,1271.7948717948716,,0,-1,1768788173.0880432
1768788173095.8557,1272.5274725274724,,0,-1,1768788173.0958557
1768788173103.6682,1270.3296703296703,,0,-1,1768788173.1036682
1768788173111.4807,1271.7948717948716,,0,-1,1768788173.1114807
1768788173119.2932,1271.062271062271,,0,-1,1768788173.1192932
1768788173127.1057,1271.7948717948716,,0,-1,1768788173.1271057
1768788173134.9182,1273.260073260073,,0,-1,1768788173.1349182
1768788173142.7307,1276.190476190476,,0,-1,1768788173.1427307
1768788173150.5432,1277.6556776556777,,0,-1,1768788173.1505432
1768788173158.3557,1282.7838827838827,,0,-1,1768788173.1583557
1768788173166.1682,1285.7142857142856,,0,-1,1768788173.1661682
1768788173173.9807,1291.5750915750914,,0,-1,1768788173.1739807
1768788173181.7932,1291.5750915750914,,0,-1,1768788173.1817932
1768788173189.6057,1293.7728937728937,,0,-1,1768788173.1896057
1768788173197.4182,1298.168498168498,,0,-1,1768788173.1974182
1768788173205.2307,1302.5641025641023,,0,-1,1768788173.2052307
1768788173213.0432,1311.3553113553112,,0,-1,1768788173.2130432
1768788173220.8557,1318.6813186813183,,0,-1,1768788173.2208557
1768788173228.6682,1324.5421245421244,,0,-1,1768788173.2286682
1768788173236.4807,1326.007326007326,,0,-1,1768788173.2364807
1768788173244.2932,1329.6703296703297,,0,-1,1768788173.2442932
1768788173252.1057,1328.937728937729,,0,-1,1768788173.2521057
1768788173259.9182,1334.065934065934,,0,-1,1768788173.2599182
1768788173267.7307,1335.5311355311355,,0,-1,1768788173.2677307
1768788173275.5432,1342.857142857143,,0,-1,1768788173.2755432
1768788173283.3557,1345.054945054945,,0,-1,1768788173.2833557
1768788173291.1682,1348.7179487179487,,0,-1,1768788173.2911682
1768788173298.9807,1347.2527472527472,,0,-1,1768788173.2989807
1768788173306.7932,1349.4505494505493,,0,-1,1768788173.3067932
1768788173314.6057,1353.113553113553,,0,-1,1768788173.3146057
1768788173322.4182,1363.3699633699632,,0,-1,1768788173.3224182
1768788173330.2307,1367.032967032967,,0,-1,1768788173.3302307
1768788173338.0432,1373.6263736263736,,0,-1,1768788173.3380432
1768788173345.8557,1372.8937728937728,,0,-1,1768788173.3458557
1768788173353.6682,1375.8241758241757,,0,-1,1768788173.3536682
1768788173361.4807,1371.428571428571,,0,-1,1768788173.3614807
1768788173369.2932,1372.161172161172,,0,-1,1768788173.3692932
1768788173377.1057,1369.9633699633698,,0,-1,1768788173.3771057
1768788173384.9182,1373.6263736263736,,0,-1,1768788173.3849182
1768788173392.7307,1373.6263736263736,,0,-1,1768788173.3927307
1768788173400.5432,1375.8241758241757,,0,-1,1768788173.4005432
1768788173408.3557,1370.6959706959706,,0,-1,1768788173.4083557
1768788173416.1682,1365.5677655677655,,0,-1,1768788173.4161682
1768788173423.9807,1356.043956043956,,0,-1,1768788173.4239807
1768788173431.7932,1350.9157509157508,,0,-1,1768788173.4317932
1768788173439.6057,1342.857142857143,,0,-1,1768788173.4396057
1768788173447.4182,1338.4615384615383,,0,-1,1768788173.4474182
1768788173455.2307,1334.7985347985348,,0,-1,1768788173.4552307
1768788173463.0432,1339.194139194139,,0,-1,1768788173.4630432
1768788173470.8557,1339.92673992674,,0,-1,1768788173.4708557
1768788173478.6682,1342.857142857143,,0,-1,1768788173.4786682
1768788173486.4807,1339.194139194139,,0,-1,1768788173.4864807
1768788173494.2932,1331.8681318681315,,0,-1,1768788173.4942932
1768788173502.1057,1328.937728937729,,0,-1,1768788173.5021057
1768788173509.9182,1324.5421245421244,,0,-1,1768788173.5099182
1768788173517.7307,1318.6813186813183,,0,-1,1768788173.5177307
1768788173525.5432,1317.9487179487178,,0,-1,1768788173.5255432
1768788173533.3557,1315.018315018315,,0,-1,1768788173.5333557
1768788173541.1682,1320.14652014652,,0,-1,1768788173.5411682
1768788173548.9807,1323.8095238095236,,0,-1,1768788173.5489807
1768788173556.7932,1330.4029304029302,,0,-1,1768788173.5567932
1768788173564.6057,1334.065934065934,,0,-1,1768788173.5646057
1768788173572.4182,1334.065934065934,,0,-1,1768788173.5724182
1768788173580.2307,1331.8681318681315,,0,-1,1768788173.5802307
1768788173588.0432,1326.739926739927,,0,-1,1768788173.5880432
1768788173595.8557,1328.937728937729,,0,-1,1768788173.5958557
1768788173603.6682,1336.263736263736,,0,-1,1768788173.6036682
1768788173611.4807,1339.194139194139,,0,-1,1768788173.6114807
1768788173619.2932,1345.7875457875457,,0,-1,1768788173.6192932
1768788173627.1057,1347.985347985348,,0,-1,1768788173.6271057
1768788173634.9182,1346.5201465201465,,0,-1,1768788173.6349182
1768788173642.7307,1341.3919413919414,,0,-1,1768788173.6427307
1768788173650.5432,1334.065934065934,,0,-1,1768788173.6505432
1768788173658.3557,1330.4029304029302,,0,-1,1768788173.6583557
1768788173666.1682,1323.8095238095236,,0,-1,1768788173.6661682
1768788173673.9807,1321.6117216117216,,0,-1,1768788173.6739807
1768788173681.7932,1318.6813186813183,,0,-1,1768788173.6817932
1768788173689.6057,1321.6117216117216,,0,-1,1768788173.6896057
1768788173697.4182,1317.9487179487178,,0,-1,1768788173.6974182
1768788173705.2307,1318.6813186813183,,0,-1,1768788173.7052307
1768788173713.0432,1313.5531135531137,,0,-1,1768788173.7130432
1768788173720.8557,1311.3553113553112,,0,-1,1768788173.7208557
1768788173728.6682,1306.9597069597069,,0,-1,1768788173.7286682
1768788173736.4807,1301.8315018315018,,0,-1,1768788173.7364807
1768788173744.2932,1300.3663003663005,,0,-1,1768788173.7442932
1768788173752.1057,1298.9010989010987,,0,-1,1768788173.7521057
1768788173759.9182,1295.2380952380952,,0,-1,1768788173.7599182
1768788173767.7307,1293.7728937728937,,0,-1,1768788173.7677307
1768788173775.5432,1297.4358974358977,,0,-1,1768788173.7755432
1768788173783.3557,1297.4358974358977,,0,-1,1768788173.7833557
1768788173791.1682,1302.5641025641023,,0,-1,1768788173.7911682
1768788173798.9807,1304.7619047619046,,0,-1,1768788173.7989807
1768788173806.7932,1305.4945054945051,,0,-1,1768788173.8067932
1768788173814.6057,1309.89010989011,,0,-1,1768788173.8146057
1768788173822.4182,1315.018315018315,,0,-1,1768788173.8224182
1768788173830.2307,1316.4835164835165,,0,-1,1768788173.8302307
1768788173838.0432,1312.8205128205127,,0,-1,1768788173.8380432
1768788173845.8557,1309.1575091575091,,0,-1,1768788173.8458557
1768788173853.6682,1301.8315018315018,,0,-1,1768788173.8536682
1768788173861.4807,1298.9010989010987,,0,-1,1768788173.8614807
1768788173869.2932,1293.040293040293,,0,-1,1768788173.8692932
1768788173877.1057,1293.7728937728937,,0,-1,1768788173.8771057
1768788173884.9182,1285.7142857142856,,0,-1,1768788173.8849182
1768788173892.7307,1282.7838827838827,,0,-1,1768788173.8927307
1768788173900.5432,1277.6556776556777,,0,-1,1768788173.9005432
1768788173908.3557,1276.190476190476,,0,-1,1768788173.9083557
1768788173916.1682,1273.992673992674,,0,-1,1768788173.9161682
1768788173923.9807,1272.5274725274724,,0,-1,1768788173.9239807
1768788173931.7932,1273.992673992674,,0,-1,1768788173.9317932
1768788173939.6057,1273.260073260073,,0,-1,1768788173.9396057
1768788173947.4182,1273.260073260073,,0,-1,1768788173.9474182
1768788173955.2307,1272.5274725274724,,0,-1,1768788173.9552307
1768788173963.0432,1268.8644688644688,,0,-1,1768788173.9630432
1768788173970.8557,1267.3992673992673,,0,-1,1768788173.9708557
1768788173978.6682,1265.2014652014652,,0,-1,1768788173.9786682
1768788173986.4807,1260.07326007326,,0,-1,1768788173.9864807
1768788173994.2932,1260.07326007326,,0,-1,1768788173.9942932
1768788174002.1057,1257.142857142857,,0,-1,1768788174.0021057
1768788174009.9182,1256.4102564102564,,0,-1,1768788174.0099182
1768788174017.7307,1261.5384615384614,,0,-1,1768788174.0177307
1768788174025.5432,1263.7362637362637,,0,-1,1768788174.0255432
1768788174033.3557,1271.062271062271,,0,-1,1768788174.0333557
1768788174041.1682,1279.8534798534797,,0,-1,1768788174.0411682
1768788174048.9807,1284.2490842490845,,0,-1,1768788174.0489807
1768788174056.7932,1287.9120879120878,,0,-1,1768788174.0567932
1768788174064.6057,1292.3076923076922,,0,-1,1768788174.0646057
1768788174072.4182,1295.970695970696,,0,-1,1768788174.0724182
1768788174080.2307,1301.098901098901,,0,-1,1768788174.0802307
1768788174088.0432,1311.3553113553112,,0,-1,1768788174.0880432
1768788174095.8557,1323.8095238095236,,0,-1,1768788174.0958557
1768788174103.6682,1333.3333333333333,,0,-1,1768788174.1036682
1768788174111.4807,1344.3223443223442,,0,-1,1768788174.1114807
1768788174119.2932,1350.9157509157508,,0,-1,1768788174.1192932
1768788174127.1057,1353.8461538461538,,0,-1,1768788174.1271057
1768788174134.9182,1355.311355311355,,0,-1,1768788174.1349182
1768788174142.7307,1357.5091575091574,,0,-1,1768788174.1427307
1768788174150.5432,1356.043956043956,,0,-1,1768788174.1505432
1768788174158.3557,1354.5787545787546,,0,-1,1768788174.1583557
1768788174166.1682,1361.1721611721612,,0,-1,1768788174.1661682
1768788174173.9807,1366.3003663003662,,0,-1,1768788174.1739807
1768788174181.7932,1368.4981684981683,,0,-1,1768788174.1817932
1768788174189.6057,1365.5677655677655,,0,-1,1768788174.1896057
1768788174197.4182,1357.5091575091574,,0,-1,1768788174.1974182
1768788174205.2307,1345.7875457875457,,0,-1,1768788174.2052307
1768788174213.0432,1337.7289377289376,,0,-1,1768788174.2130432
1768788174220.8557,1332.6007326007325,,0,-1,1768788174.2208557
1768788174228.6682,1328.937728937729,,0,-1,1768788174.2286682
1768788174236.4807,1323.8095238095236,,0,-1,1768788174.2364807
1768788174244.2932,1322.3443223443223,,0,-1,1768788174.2442932
1768788174252.1057,1324.5421245421244,,0,-1,1768788174.2521057
1768788174259.9182,1326.007326007326,,0,-1,1768788174.2599182
1768788174267.7307,1328.2051282051282,,0,-1,1768788174.2677307
1768788174275.5432,1332.6007326007325,,0,-1,1768788174.2755432
1768788174283.3557,1336.9963369963368,,0,-1,1768788174.2833557
1768788174291.1682,1339.194139194139,,0,-1,1768788174.2911682
1768788174298.9807,1340.6593406593406,,0,-1,1768788174.2989807
1768788174306.7932,1342.857142857143,,0,-1,1768788174.3067932
1768788174314.6057,1342.124542124542,,0,-1,1768788174.3146057
1768788174322.4182,1340.6593406593406,,0,-1,1768788174.3224182
1768788174330.2307,1339.194139194139,,0,-1,1768788174.3302307
1768788174338.0432,1339.194139194139,,0,-1,1768788174.3380432
1768788174345.8557,1342.124542124542,,0,-1,1768788174.3458557
1768788174353.6682,1347.985347985348,,0,-1,1768788174.3536682
1768788174361.4807,1350.9157509157508,,0,-1,1768788174.3614807
1768788174369.2932,1354.5787545787546,,0,-1,1768788174.3692932
1768788174377.1057,1358.974358974359,,0,-1,1768788174.3771057
1768788174384.9182,1361.1721611721612,,0,-1,1768788174.3849182
1768788174392.7307,1359.7069597069597,,0,-1,1768788174.3927307
1768788174400.5432,1357.5091575091574,,0,-1,1768788174.4005432
1768788174408.3557,1355.311355311355,,0,-1,1768788174.4083557
1768788174416.1682,1355.311355311355,,0,-1,1768788174.4161682
1768788174423.9807,1356.043956043956,,0,-1,1768788174.4239807
1768788174431.7932,1355.311355311355,,0,-1,1768788174.4317932
1768788174439.6057,1350.18315018315,,0,-1,1768788174.4396057
1768788174447.4182,1343.5897435897434,,0,-1,1768788174.4474182
1768788174455.2307,1335.5311355311355,,0,-1,1768788174.4552307
1768788174463.0432,1331.8681318681315,,0,-1,1768788174.4630432
1768788174470.8557,1330.4029304029302,,0,-1,1768788174.4708557
1768788174478.6682,1331.8681318681315,,0,-1,1768788174.4786682
1768788174486.4807,1336.9963369963368,,0,-1,1768788174.4864807
1768788174494.2932,1339.194139194139,,0,-1,1768788174.4942932
1768788174502.1057,1336.9963369963368,,0,-1,1768788174.5021057
1768788174509.9182,1334.065934065934,,0,-1,1768788174.5099182
1768788174517.7307,1327.4725274725274,,0,-1,1768788174.5177307
1768788174525.5432,1322.3443223443223,,0,-1,1768788174.5255432
1768788174533.3557,1319.4139194139193,,0,-1,1768788174.5333557
1768788174541.1682,1317.216117216117,,0,-1,1768788174.5411682
1768788174548.9807,1320.14652014652,,0,-1,1768788174.5489807
1768788174556.7932,1323.076923076923,,0,-1,1768788174.5567932
1768788174564.6057,1328.2051282051282,,0,-1,1768788174.5646057
1768788174572.4182,1332.6007326007325,,0,-1,1768788174.5724182
1768788174580.2307,1336.263736263736,,0,-1,1768788174.5802307
1768788174588.0432,1339.92673992674,,0,-1,1768788174.5880432
1768788174595.8557,1343.5897435897434,,0,-1,1768788174.5958557
1768788174603.6682,1345.054945054945,,0,-1,1768788174.6036682
1768788174611.4807,1341.3919413919414,,0,-1,1768788174.6114807
1768788174619.2932,1335.5311355311355,,0,-1,1768788174.6192932
1768788174627.1057,1329.6703296703297,,0,-1,1768788174.6271057
1768788174634.9182,1326.739926739927,,0,-1,1768788174.6349182
1768788174642.7307,1326.007326007326,,0,-1,1768788174.6427307
1768788174650.5432,1329.6703296703297,,0,-1,1768788174.6505432
1768788174658.3557,1331.135531135531,,0,-1,1768788174.6583557
1768788174666.1682,1331.135531135531,,0,-1,1768788174.6661682
1768788174673.9807,1331.8681318681315,,0,-1,1768788174.6739807
1768788174681.7932,1328.937728937729,,0,-1,1768788174.6817932
1768788174689.6057,1323.076923076923,,0,-1,1768788174.6896057
1768788174697.4182,1315.7509157509155,,0,-1,1768788174.6974182
1768788174705.2307,1306.9597069597069,,0,-1,1768788174.7052307
1768788174713.0432,1298.9010989010987,,0,-1,1768788174.7130432
1768788174720.8557,1292.3076923076922,,0,-1,1768788174.7208557
1768788174728.6682,1285.7142857142856,,0,-1,1768788174.7286682
1768788174736.4807,1281.3186813186812,,0,-1,1768788174.7364807
1768788174744.2932,1282.7838827838827,,0,-1,1768788174.7442932
1768788174752.1057,1284.9816849816848,,0,-1,1768788174.7521057
1768788174759.9182,1287.9120879120878,,0,-1,1768788174.7599182
1768788174767.7307,1287.9120879120878,,0,-1,1768788174.7677307
1768788174775.5432,1289.3772893772891,,0,-1,1768788174.7755432
1768788174783.3557,1287.179487179487,,0,-1,1768788174.7833557
1768788174791.1682,1284.9816849816848,,0,-1,1768788174.7911682
1768788174798.9807,1284.9816849816848,,0,-1,1768788174.7989807
1768788174806.7932,1284.9816849816848,,0,-1,1768788174.8067932
1768788174814.6057,1284.9816849816848,,0,-1,1768788174.8146057
1768788174822.4182,1284.2490842490845,,0,-1,1768788174.8224182
1768788174830.2307,1282.7838827838827,,0,-1,1768788174.8302307
1768788174838.0432,1280.5860805860805,,0,-1,1768788174.8380432
1768788174845.8557,1285.7142857142856,,0,-1,1768788174.8458557
1768788174853.6682,1290.8424908424909,,0,-1,1768788174.8536682
1768788174861.4807,1298.168498168498,,0,-1,1768788174.8614807
1768788174869.2932,1301.8315018315018,,0,-1,1768788174.8692932
1768788174877.1057,1301.098901098901,,0,-1,1768788174.8771057
1768788174884.9182,1298.168498168498,,0,-1,1768788174.8849182
1768788174892.7307,1295.2380952380952,,0,-1,1768788174.8927307
1768788174900.5432,1291.5750915750914,,0,-1,1768788174.9005432
1768788174908.3557,1287.179487179487,,0,-1,1768788174.9083557
1768788174916.1682,1286.4468864468863,,0,-1,1768788174.9161682
1768788174923.9807,1287.9120879120878,,0,-1,1768788174.9239807
1768788174931.7932,1288.6446886446886,,0,-1,1768788174.9317932
1768788174939.6057,1288.6446886446886,,0,-1,1768788174.9396057
1768788174947.4182,1287.179487179487,,0,-1,1768788174.9474182
1768788174955.2307,1283.5164835164835,,0,-1,1768788174.9552307
1768788174963.0432,1286.4468864468863,,0,-1,1768788174.9630432
1768788174970.8557,1293.7728937728937,,0,-1,1768788174.9708557
1768788174978.6682,1296.7032967032967,,0,-1,1768788174.9786682
1768788174986.4807,1293.7728937728937,,0,-1,1768788174.9864807
1768788174994.2932,1286.4468864468863,,0,-1,1768788174.9942932
1768788175002.1057,1282.7838827838827,,0,-1,1768788175.0021057
1768788175009.9182,1282.7838827838827,,0,-1,1768788175.0099182
1768788175017.7307,1279.8534798534797,,0,-1,1768788175.0177307
1768788175025.5432,1276.190476190476,,0,-1,1768788175.0255432
1768788175033.3557,1271.7948717948716,,0,-1,1768788175.0333557
1768788175041.1682,1268.131868131868,,0,-1,1768788175.0411682
1768788175048.9807,1265.9340659340658,,0,-1,1768788175.0489807
1768788175056.7932,1262.2710622710622,,0,-1,1768788175.0567932
1768788175064.6057,1258.6080586080586,,0,-1,1768788175.0646057
1768788175072.4182,1254.9450549450548,,0,-1,1768788175.0724182
1768788175080.2307,1251.2820512820513,,0,-1,1768788175.0802307
1768788175088.0432,1249.8168498168498,,0,-1,1768788175.0880432
1768788175095.8557,1244.688644688645,,0,-1,1768788175.0958557
1768788175103.6682,1238.095238095238,,0,-1,1768788175.1036682
1768788175111.4807,1232.2344322344322,,0,-1,1768788175.1114807
1768788175119.2932,1229.3040293040292,,0,-1,1768788175.1192932
1768788175127.1057,1230.03663003663,,0,-1,1768788175.1271057
1768788175134.9182,1233.6996336996335,,0,-1,1768788175.1349182
1768788175142.7307,1241.0256410256409,,0,-1,1768788175.1427307
1768788175150.5432,1250.5494505494505,,0,-1,1768788175.1505432
1768788175158.3557,1262.2710622710622,,0,-1,1768788175.1583557
1768788175166.1682,1277.6556776556777,,0,-1,1768788175.1661682
1768788175173.9807,1293.040293040293,,0,-1,1768788175.1739807
1768788175181.7932,1309.1575091575091,,0,-1,1768788175.1817932
1768788175189.6057,1323.8095238095236,,0,-1,1768788175.1896057
1768788175197.4182,1335.5311355311355,,0,-1,1768788175.1974182
1768788175205.2307,1345.7875457875457,,0,-1,1768788175.2052307
1768788175213.0432,1353.113553113553,,0,-1,1768788175.2130432
1768788175220.8557,1353.113553113553,,0,-1,1768788175.2208557
1768788175228.6682,1350.18315018315,,0,-1,1768788175.2286682
1768788175236.4807,1347.2527472527472,,0,-1,1768788175.2364807
1768788175244.2932,1345.054945054945,,0,-1,1768788175.2442932
1768788175252.1057,1345.054945054945,,0,-1,1768788175.2521057
1768788175259.9182,1344.3223443223442,,0,-1,1768788175.2599182
1768788175267.7307,1340.6593406593406,,0,-1,1768788175.2677307
1768788175275.5432,1341.3919413919414,,1,1,1768788175.2755432
1768788175283.3557,1342.124542124542,,1,1,1768788175.2833557
1768788175291.1682,1342.857142857143,,1,1,1768788175.2911682
1768788175298.9807,1340.6593406593406,,1,1,1768788175.2989807
1768788175306.7932,1336.263736263736,,1,1,1768788175.3067932
1768788175314.6057,1337.7289377289376,,1,1,1768788175.3146057
1768788175322.4182,1339.194139194139,,1,1,1768788175.3224182
1768788175330.2307,1340.6593406593406,,1,1,1768788175.3302307
1768788175338.0432,1340.6593406593406,,1,1,1768788175.3380432
1768788175345.8557,1343.5897435897434,,1,1,1768788175.3458557
1768788175353.6682,1345.054945054945,,1,1,1768788175.3536682
1768788175361.4807,1347.985347985348,,1,1,1768788175.3614807
1768788175369.2932,1351.6483516483515,,1,1,1768788175.3692932
1768788175377.1057,1350.9157509157508,,1,1,1768788175.3771057
1768788175384.9182,1350.18315018315,,1,1,1768788175.3849182
1768788175392.7307,1346.5201465201465,,1,1,1768788175.3927307
1768788175400.5432,1340.6593406593406,,1,1,1768788175.4005432
1768788175408.3557,1335.5311355311355,,1,1,1768788175.4083557
1768788175416.1682,1334.065934065934,,1,1,1768788175.4161682
1768788175423.9807,1333.3333333333333,,1,1,1768788175.4239807
1768788175431.7932,1330.4029304029302,,1,1,1768788175.4317932
1768788175439.6057,1329.6703296703297,,1,1,1768788175.4396057
1768788175447.4182,1327.4725274725274,,1,1,1768788175.4474182
1768788175455.2307,1321.6117216117216,,1,1,1768788175.4552307
1768788175463.0432,1317.216117216117,,1,1,1768788175.4630432
1768788175470.8557,1314.2857142857142,,1,1,1768788175.4708557
1768788175478.6682,1311.3553113553112,,1,1,1768788175.4786682
1768788175486.4807,1306.9597069597069,,1,1,1768788175.4864807
1768788175494.2932,1306.227106227106,,1,1,1768788175.4942932
1768788175502.1057,1306.9597069597069,,1,1,1768788175.5021057
1768788175509.9182,1306.9597069597069,,1,1,1768788175.5099182
1768788175517.7307,1312.087912087912,,1,1,1768788175.5177307
1768788175525.5432,1316.4835164835165,,1,1,1768788175.5255432
1768788175533.3557,1320.14652014652,,1,1,1768788175.5333557
1768788175541.1682,1328.937728937729,,1,1,1768788175.5411682
1768788175548.9807,1334.065934065934,,1,1,1768788175.5489807
1768788175556.7932,1343.5897435897434,,1,1,1768788175.5567932
1768788175564.6057,1354.5787545787546,,1,1,1768788175.5646057
1768788175572.4182,1361.904761904762,,1,1,1768788175.5724182
1768788175580.2307,1371.428571428571,,1,1,1768788175.5802307
1768788175588.0432,1376.5567765567764,,1,1,1768788175.5880432
1768788175595.8557,1372.161172161172,,1,1,1768788175.5958557
1768788175603.6682,1367.7655677655678,,1,1,1768788175.6036682
1768788175611.4807,1360.4395604395604,,1,1,1768788175.6114807
1768788175619.2932,1356.7765567765566,,1,1,1768788175.6192932
1768788175627.1057,1348.7179487179487,,1,1,1768788175.6271057
1768788175634.9182,1343.5897435897434,,1,1,1768788175.6349182
1768788175642.7307,1342.857142857143,,1,1,1768788175.6427307
1768788175650.5432,1335.5311355311355,,1,1,1768788175.6505432
1768788175658.3557,1333.3333333333333,,1,1,1768788175.6583557
1768788175666.1682,1328.937728937729,,1,1,1768788175.6661682
1768788175673.9807,1328.937728937729,,1,1,1768788175.6739807
1768788175681.7932,1328.2051282051282,,1,1,1768788175.6817932
1768788175689.6057,1333.3333333333333,,1,1,1768788175.6896057
1768788175697.4182,1341.3919413919414,,1,1,1768788175.6974182
1768788175705.2307,1347.2527472527472,,1,1,1768788175.7052307
1768788175713.0432,1351.6483516483515,,1,1,1768788175.7130432
1768788175720.8557,1357.5091575091574,,1,1,1768788175.7208557
1768788175728.6682,1361.1721611721612,,1,1,1768788175.7286682
1768788175736.4807,1359.7069597069597,,1,1,1768788175.7364807
1768788175744.2932,1355.311355311355,,1,1,1768788175.7442932
1768788175752.1057,1351.6483516483515,,1,1,1768788175.7521057
1768788175759.9182,1344.3223443223442,,1,1,1768788175.7599182
1768788175767.7307,1341.3919413919414,,1,1,1768788175.7677307
1768788175775.5432,1334.7985347985348,,1,1,1768788175.7755432
1768788175783.3557,1332.6007326007325,,1,1,1768788175.7833557
1768788175791.1682,1328.2051282051282,,1,1,1768788175.7911682
1768788175798.9807,1323.076923076923,,1,1,1768788175.7989807
1768788175806.7932,1319.4139194139193,,1,1,1768788175.8067932
1768788175814.6057,1310.6227106227104,,1,1,1768788175.8146057
1768788175822.4182,1306.227106227106,,1,1,1768788175.8224182
1768788175830.2307,1298.168498168498,,1,1,1768788175.8302307
1768788175838.0432,1299.6336996336995,,1,1,1768788175.8380432
1768788175845.8557,1298.9010989010987,,1,1,1768788175.8458557
1768788175853.6682,1305.4945054945051,,1,1,1768788175.8536682
1768788175861.4807,1308.4249084249084,,1,1,1768788175.8614807
1768788175869.2932,1317.216117216117,,1,1,1768788175.8692932
1768788175877.1057,1323.8095238095236,,1,1,1768788175.8771057
1768788175884.9182,1325.2747252747251,,1,1,1768788175.8849182
1768788175892.7307,1330.4029304029302,,1,1,1768788175.8927307
1768788175900.5432,1328.937728937729,,1,1,1768788175.9005432
1768788175908.3557,1328.937728937729,,1,1,1768788175.9083557
1768788175916.1682,1325.2747252747251,,1,1,1768788175.9161682
1768788175923.9807,1323.8095238095236,,1,1,1768788175.9239807
1768788175931.7932,1316.4835164835165,,1,1,1768788175.9317932
1768788175939.6057,1312.8205128205127,,1,1,1768788175.9396057
1768788175947.4182,1305.4945054945051,,1,1,1768788175.9474182
1768788175955.2307,1304.0293040293038,,1,1,1768788175.9552307
1768788175963.0432,1308.4249084249084,,1,1,1768788175.9630432
1768788175970.8557,1309.1575091575091,,1,1,1768788175.9708557
1768788175978.6682,1312.8205128205127,,1,1,1768788175.9786682
1768788175986.4807,1309.89010989011,,1,1,1768788175.9864807
1768788175994.2932,1312.8205128205127,,1,1,1768788175.9942932
1768788176002.1057,1312.8205128205127,,1,1,1768788176.0021057
1768788176009.9182,1319.4139194139193,,1,1,1768788176.0099182
1768788176017.7307,1318.6813186813183,,1,1,1768788176.0177307
1768788176025.5432,1323.076923076923,,1,1,1768788176.0255432
1768788176033.3557,1319.4139194139193,,1,1,1768788176.0333557
1768788176041.1682,1320.8791208791208,,1,1,1768788176.0411682
1768788176048.9807,1315.018315018315,,1,1,1768788176.0489807
1768788176056.7932,1314.2857142857142,,1,1,1768788176.0567932
1768788176064.6057,1307.6923076923076,,1,1,1768788176.0646057
1768788176072.4182,1304.7619047619046,,1,1,1768788176.0724182
1768788176080.2307,1303.2967032967033,,1,1,1768788176.0802307
1768788176088.0432,1298.168498168498,,1,1,1768788176.0880432
1768788176095.8557,1298.9010989010987,,1,1,1768788176.0958557
1768788176103.6682,1295.970695970696,,1,1,1768788176.1036682
1768788176111.4807,1296.7032967032967,,1,1,1768788176.1114807
1768788176119.2932,1292.3076923076922,,1,1,1768788176.1192932
1768788176127.1057,1283.5164835164835,,1,1,1768788176.1271057
1768788176134.9182,1273.260073260073,,1,1,1768788176.1349182
1768788176142.7307,1265.9340659340658,,1,1,1768788176.1427307
1768788176150.5432,1263.003663003663,,1,1,1768788176.1505432
1768788176158.3557,1260.805860805861,,1,1,1768788176.1583557
1768788176166.1682,1264.4688644688645,,1,1,1768788176.1661682
1768788176173.9807,1271.7948717948716,,1,1,1768788176.1739807
1768788176181.7932,1277.6556776556777,,1,1,1768788176.1817932
1768788176189.6057,1289.3772893772891,,1,1,1768788176.1896057
1768788176197.4182,1297.4358974358977,,1,1,1768788176.1974182
1768788176205.2307,1308.4249084249084,,1,1,1768788176.2052307
1768788176213.0432,1317.216117216117,,1,1,1768788176.2130432
1768788176220.8557,1326.007326007326,,1,1,1768788176.2208557
1768788176228.6682,1334.065934065934,,1,1,1768788176.2286682
1768788176236.4807,1336.9963369963368,,1,1,1768788176.2364807
1768788176244.2932,1342.124542124542,,1,1,1768788176.2442932
1768788176252.1057,1342.857142857143,,1,1,1768788176.2521057
1768788176259.9182,1347.2527472527472,,1,1,1768788176.2599182
1768788176267.7307,1346.5201465201465,,1,1,1768788176.2677307
1768788176275.5432,1349.4505494505493,,1,1,1768788176.2755432
1768788176283.3557,1347.985347985348,,1,1,1768788176.2833557
1768788176291.1682,1349.4505494505493,,1,1,1768788176.2911682
1768788176298.9807,1351.6483516483515,,1,1,1768788176.2989807
1768788176306.7932,1354.5787545787546,,1,1,1768788176.3067932
1768788176314.6057,1362.6373626373625,,1,1,1768788176.3146057
1768788176322.4182,1364.8351648351647,,1,1,1768788176.3224182
1768788176330.2307,1364.102564102564,,1,1,1768788176.3302307
1768788176338.0432,1367.032967032967,,1,1,1768788176.3380432
1768788176345.8557,1365.5677655677655,,1,1,1768788176.3458557
1768788176353.6682,1362.6373626373625,,1,1,1768788176.3536682
1768788176361.4807,1357.5091575091574,,1,1,1768788176.3614807
1768788176369.2932,1358.241758241758,,1,1,1768788176.3692932
1768788176377.1057,1359.7069597069597,,1,1,1768788176.3771057
1768788176384.9182,1368.4981684981683,,1,1,1768788176.3849182
1768788176392.7307,1373.6263736263736,,1,1,1768788176.3927307
1768788176400.5432,1383.8827838827838,,1,1,1768788176.4005432
1768788176408.3557,1389.7435897435896,,1,1,1768788176.4083557
1768788176416.1682,1398.5347985347985,,1,1,1768788176.4161682
1768788176423.9807,1402.9304029304028,,1,1,1768788176.4239807
1768788176431.7932,1413.1868131868132,,1,1,1768788176.4317932
1768788176439.6057,1417.5824175824175,,1,1,1768788176.4396057
1768788176447.4182,1424.175824175824,,1,1,1768788176.4474182
1768788176455.2307,1424.175824175824,,1,1,1768788176.4552307
1768788176463.0432,1421.245421245421,,1,1,1768788176.4630432
1768788176470.8557,1416.8498168498168,,1,1,1768788176.4708557
1768788176478.6682,1410.2564102564102,,1,1,1768788176.4786682
1768788176486.4807,1406.5934065934066,,1,1,1768788176.4864807
1768788176494.2932,1397.8021978021975,,1,1,1768788176.4942932
1768788176502.1057,1395.6043956043954,,1,1,1768788176.5021057
1768788176509.9182,1389.7435897435896,,1,1,1768788176.5099182
1768788176517.7307,1389.0109890109889,,1,1,1768788176.5177307
1768788176525.5432,1380.952380952381,,1,1,1768788176.5255432
1768788176533.3557,1376.5567765567764,,1,1,1768788176.5333557
1768788176541.1682,1367.7655677655678,,1,1,1768788176.5411682
1768788176548.9807,1367.032967032967,,1,1,1768788176.5489807
1768788176556.7932,1362.6373626373625,,1,1,1768788176.5567932
1768788176564.6057,1367.032967032967,,1,1,1768788176.5646057
1768788176572.4182,1369.230769230769,,1,1,1768788176.5724182
1768788176580.2307,1376.5567765567764,,1,1,1768788176.5802307
1768788176588.0432,1381.6849816849815,,1,1,1768788176.5880432
1768788176595.8557,1382.4175824175825,,1,1,1768788176.5958557
1768788176603.6682,1382.4175824175825,,1,1,1768788176.6036682
1768788176611.4807,1375.091575091575,,1,1,1768788176.6114807
1768788176619.2932,1373.6263736263736,,1,1,1768788176.6192932
1768788176627.1057,1367.7655677655678,,1,1,1768788176.6271057
1768788176634.9182,1365.5677655677655,,1,1,1768788176.6349182
1768788176642.7307,1365.5677655677655,,1,1,1768788176.6427307
1768788176650.5432,1361.904761904762,,1,1,1768788176.6505432
1768788176658.3557,1365.5677655677655,,1,1,1768788176.6583557
1768788176666.1682,1367.032967032967,,1,1,1768788176.6661682
1768788176673.9807,1369.230769230769,,1,1,1768788176.6739807
1768788176681.7932,1371.428571428571,,1,1,1768788176.6817932
1768788176689.6057,1370.6959706959706,,1,1,1768788176.6896057
1768788176697.4182,1367.032967032967,,1,1,1768788176.6974182
1768788176705.2307,1366.3003663003662,,1,1,1768788176.7052307
1768788176713.0432,1367.7655677655678,,1,1,1768788176.7130432
1768788176720.8557,1369.230769230769,,1,1,1768788176.7208557
1768788176728.6682,1368.4981684981683,,1,1,1768788176.7286682
1768788176736.4807,1369.9633699633698,,1,1,1768788176.7364807
1768788176744.2932,1371.428571428571,,1,1,1768788176.7442932
1768788176752.1057,1366.3003663003662,,1,1,1768788176.7521057
1768788176759.9182,1361.1721611721612,,1,1,1768788176.7599182
1768788176767.7307,1356.7765567765566,,1,1,1768788176.7677307
1768788176775.5432,1356.7765567765566,,1,1,1768788176.7755432
1768788176783.3557,1358.974358974359,,1,1,1768788176.7833557
1768788176791.1682,1359.7069597069597,,1,1,1768788176.7911682
1768788176798.9807,1359.7069597069597,,1,1,1768788176.7989807
1768788176806.7932,1362.6373626373625,,1,1,1768788176.8067932
1768788176814.6057,1358.974358974359,,1,1,1768788176.8146057
1768788176822.4182,1353.8461538461538,,1,1,1768788176.8224182
1768788176830.2307,1350.18315018315,,1,1,1768788176.8302307
1768788176838.0432,1348.7179487179487,,1,1,1768788176.8380432
1768788176845.8557,1346.5201465201465,,1,1,1768788176.8458557
1768788176853.6682,1344.3223443223442,,1,1,1768788176.8536682
1768788176861.4807,1342.124542124542,,1,1,1768788176.8614807
1768788176869.2932,1340.6593406593406,,1,1,1768788176.8692932
1768788176877.1057,1345.7875457875457,,1,1,1768788176.8771057
1768788176884.9182,1349.4505494505493,,1,1,1768788176.8849182
1768788176892.7307,1352.3809523809523,,1,1,1768788176.8927307
1768788176900.5432,1354.5787545787546,,1,1,1768788176.9005432
1768788176908.3557,1356.7765567765566,,1,1,1768788176.9083557
1768788176916.1682,1357.5091575091574,,1,1,1768788176.9161682
1768788176923.9807,1356.043956043956,,1,1,1768788176.9239807
1768788176931.7932,1351.6483516483515,,1,1,1768788176.9317932
1768788176939.6057,1344.3223443223442,,1,1,1768788176.9396057
1768788176947.4182,1337.7289377289376,,1,1,1768788176.9474182
1768788176955.2307,1336.263736263736,,1,1,1768788176.9552307
1768788176963.0432,1333.3333333333333,,1,1,1768788176.9630432
1768788176970.8557,1329.6703296703297,,1,1,1768788176.9708557
1768788176978.6682,1326.739926739927,,1,1,1768788176.9786682
1768788176986.4807,1323.076923076923,,1,1,1768788176.9864807
1768788176994.2932,1320.14652014652,,1,1,1768788176.9942932
1768788177002.1057,1316.4835164835165,,1,1,1768788177.0021057
1768788177009.9182,1315.018315018315,,1,1,1768788177.0099182
1768788177017.7307,1318.6813186813183,,1,1,1768788177.0177307
1768788177025.5432,1319.4139194139193,,1,1,1768788177.0255432
1768788177033.3557,1317.9487179487178,,1,1,1768788177.0333557
1768788177041.1682,1318.6813186813183,,1,1,1768788177.0411682
1768788177048.9807,1317.9487179487178,,1,1,1768788177.0489807
1768788177056.7932,1317.9487179487178,,1,1,1768788177.0567932
1768788177064.6057,1319.4139194139193,,1,1,1768788177.0646057
1768788177072.4182,1322.3443223443223,,1,1,1768788177.0724182
1768788177080.2307,1328.937728937729,,1,1,1768788177.0802307
1768788177088.0432,1337.7289377289376,,1,1,1768788177.0880432
1768788177095.8557,1345.054945054945,,1,1,1768788177.0958557
1768788177103.6682,1348.7179487179487,,1,1,1768788177.1036682
1768788177111.4807,1348.7179487179487,,1,1,1768788177.1114807
1768788177119.2932,1348.7179487179487,,1,1,1768788177.1192932
1768788177127.1057,1349.4505494505493,,1,1,1768788177.1271057
1768788177134.9182,1349.4505494505493,,1,1,1768788177.1349182
1768788177142.7307,1346.5201465201465,,1,1,1768788177.1427307
1768788177150.5432,1342.124542124542,,1,1,1768788177.1505432
1768788177158.3557,1338.4615384615383,,1,1,1768788177.1583557
1768788177166.1682,1336.263736263736,,1,1,1768788177.1661682
1768788177173.9807,1334.065934065934,,1,1,1768788177.1739807
1768788177181.7932,1334.7985347985348,,1,1,1768788177.1817932
1768788177189.6057,1338.4615384615383,,1,1,1768788177.1896057
1768788177197.4182,1341.3919413919414,,1,1,1768788177.1974182
1768788177205.2307,1346.5201465201465,,1,1,1768788177.2052307
1768788177213.0432,1350.9157509157508,,1,1,1768788177.2130432
1768788177220.8557,1358.974358974359,,1,1,1768788177.2208557
1768788177228.6682,1367.032967032967,,1,1,1768788177.2286682
1768788177236.4807,1375.091575091575,,1,1,1768788177.2364807
1768788177244.2932,1380.952380952381,,1,1,1768788177.2442932
1768788177252.1057,1381.6849816849815,,1,1,1768788177.2521057
1768788177259.9182,1380.952380952381,,1,1,1768788177.2599182
1768788177267.7307,1382.4175824175825,,1,1,1768788177.2677307
1768788177275.5432,1380.2197802197802,,1,1,1768788177.2755432
1768788177283.3557,1378.7545787545787,,1,1,1768788177.2833557
1768788177291.1682,1381.6849816849815,,1,1,1768788177.2911682
1768788177298.9807,1386.8131868131868,,1,1,1768788177.2989807
1768788177306.7932,1391.941391941392,,1,1,1768788177.3067932
1768788177314.6057,1400.0,,1,1,1768788177.3146057
1768788177322.4182,1405.128205128205,,1,1,1768788177.3224182
1768788177330.2307,1412.4542124542124,,1,1,1768788177.3302307
1768788177338.0432,1421.245421245421,,1,1,1768788177.3380432
1768788177345.8557,1427.8388278388277,,1,1,1768788177.3458557
1768788177353.6682,1430.03663003663,,1,1,1768788177.3536682
1768788177361.4807,1432.2344322344322,,1,1,1768788177.3614807
1768788177369.2932,1433.6996336996335,,1,1,1768788177.3692932
1768788177377.1057,1433.6996336996335,,1,1,1768788177.3771057
1768788177384.9182,1432.2344322344322,,1,1,1768788177.3849182
1768788177392.7307,1428.5714285714284,,1,1,1768788177.3927307
1768788177400.5432,1424.175824175824,,1,1,1768788177.4005432
1768788177408.3557,1421.245421245421,,1,1,1768788177.4083557
1768788177416.1682,1418.3150183150185,,1,1,1768788177.4161682
1768788177423.9807,1419.047619047619,,1,1,1768788177.4239807
1768788177431.7932,1420.5128205128203,,1,1,1768788177.4317932
1768788177439.6057,1419.047619047619,,1,1,1768788177.4396057
1768788177447.4182,1413.9194139194135,,1,1,1768788177.4474182
1768788177455.2307,1410.989010989011,,1,1,1768788177.4552307
1768788177463.0432,1412.4542124542124,,1,1,1768788177.4630432
1768788177470.8557,1416.117216117216,,1,1,1768788177.4708557
1768788177478.6682,1419.047619047619,,1,1,1768788177.4786682
1768788177486.4807,1422.7106227106226,,1,1,1768788177.4864807
1768788177494.2932,1424.175824175824,,1,1,1768788177.4942932
1768788177502.1057,1426.3736263736262,,1,1,1768788177.5021057
1768788177509.9182,1428.5714285714284,,1,1,1768788177.5099182
1768788177517.7307,1428.5714285714284,,1,1,1768788177.5177307
1768788177525.5432,1431.5018315018317,,1,1,1768788177.5255432
1768788177533.3557,1430.7692307692307,,1,1,1768788177.5333557
1768788177541.1682,1424.9084249084249,,1,1,1768788177.5411682
1768788177548.9807,1417.5824175824175,,1,1,1768788177.5489807
1768788177556.7932,1409.5238095238094,,1,1,1768788177.5567932
1768788177564.6057,1405.8608058608058,,1,1,1768788177.5646057
1768788177572.4182,1402.9304029304028,,1,1,1768788177.5724182
1768788177580.2307,1401.4652014652013,,1,1,1768788177.5802307
1768788177588.0432,1401.4652014652013,,1,1,1768788177.5880432
1768788177595.8557,1401.4652014652013,,1,1,1768788177.5958557
1768788177603.6682,1401.4652014652013,,1,1,1768788177.6036682
1768788177611.4807,1403.6630036630036,,1,1,1768788177.6114807
1768788177619.2932,1405.8608058608058,,1,1,1768788177.6192932
1768788177627.1057,1408.058608058608,,1,1,1768788177.6271057
1768788177634.9182,1408.058608058608,,1,1,1768788177.6349182
1768788177642.7307,1408.058608058608,,1,1,1768788177.6427307
1768788177650.5432,1406.5934065934066,,1,1,1768788177.6505432
1768788177658.3557,1406.5934065934066,,1,1,1768788177.6583557
1768788177666.1682,1405.8608058608058,,1,1,1768788177.6661682
1768788177673.9807,1402.9304029304028,,1,1,1768788177.6739807
1768788177681.7932,1400.0,,1,1,1768788177.6817932
1768788177689.6057,1396.3369963369962,,1,1,1768788177.6896057
1768788177697.4182,1396.3369963369962,,1,1,1768788177.6974182
1768788177705.2307,1395.6043956043954,,1,1,1768788177.7052307
1768788177713.0432,1396.3369963369962,,1,1,1768788177.7130432
1768788177720.8557,1397.069597069597,,1,1,1768788177.7208557
1768788177728.6682,1405.128205128205,,1,1,1768788177.7286682
1768788177736.4807,1409.5238095238094,,1,1,1768788177.7364807
1768788177744.2932,1414.6520146520145,,1,1,1768788177.7442932
1768788177752.1057,1415.3846153846152,,1,1,1768788177.7521057
1768788177759.9182,1405.128205128205,,1,1,1768788177.7599182
1768788177767.7307,1389.7435897435896,,1,1,1768788177.7677307
1768788177775.5432,1374.3589743589744,,1,1,1768788177.7755432
1768788177783.3557,1358.241758241758,,1,1,1768788177.7833557
1768788177791.1682,1347.985347985348,,1,1,1768788177.7911682
1768788177798.9807,1345.7875457875457,,1,1,1768788177.7989807
1768788177806.7932,1349.4505494505493,,1,1,1768788177.8067932
1768788177814.6057,1356.7765567765566,,1,1,1768788177.8146057
1768788177822.4182,1361.904761904762,,1,1,1768788177.8224182
1768788177830.2307,1360.4395604395604,,1,1,1768788177.8302307
1768788177838.0432,1359.7069597069597,,1,1,1768788177.8380432
1768788177845.8557,1359.7069597069597,,1,1,1768788177.8458557
1768788177853.6682,1359.7069597069597,,1,1,1768788177.8536682
1768788177861.4807,1360.4395604395604,,1,1,1768788177.8614807
1768788177869.2932,1358.241758241758,,1,1,1768788177.8692932
1768788177877.1057,1357.5091575091574,,1,1,1768788177.8771057
1768788177884.9182,1360.4395604395604,,1,1,1768788177.8849182
1768788177892.7307,1364.102564102564,,1,1,1768788177.8927307
1768788177900.5432,1368.4981684981683,,1,1,1768788177.9005432
1768788177908.3557,1372.161172161172,,1,1,1768788177.9083557
1768788177916.1682,1374.3589743589744,,1,1,1768788177.9161682
1768788177923.9807,1372.8937728937728,,1,1,1768788177.9239807
1768788177931.7932,1374.3589743589744,,0,-1,1768788177.9317932
1768788177939.6057,1374.3589743589744,,0,-1,1768788177.9396057
1768788177947.4182,1374.3589743589744,,0,-1,1768788177.9474182
1768788177955.2307,1375.091575091575,,0,-1,1768788177.9552307
1768788177963.0432,1376.5567765567764,,0,-1,1768788177.9630432
1768788177970.8557,1372.161172161172,,0,-1,1768788177.9708557
1768788177978.6682,1365.5677655677655,,0,-1,1768788177.9786682
1768788177986.4807,1358.241758241758,,0,-1,1768788177.9864807
1768788177994.2932,1353.113553113553,,0,-1,1768788177.9942932
1768788178002.1057,1347.2527472527472,,0,-1,1768788178.0021057
1768788178009.9182,1342.124542124542,,0,-1,1768788178.0099182
1768788178017.7307,1339.194139194139,,0,-1,1768788178.0177307
1768788178025.5432,1339.194139194139,,0,-1,1768788178.0255432
1768788178033.3557,1337.7289377289376,,0,-1,1768788178.0333557
1768788178041.1682,1332.6007326007325,,0,-1,1768788178.0411682
1768788178048.9807,1329.6703296703297,,0,-1,1768788178.0489807
1768788178056.7932,1331.135531135531,,0,-1,1768788178.0567932
1768788178064.6057,1331.8681318681315,,0,-1,1768788178.0646057
1768788178072.4182,1331.8681318681315,,0,-1,1768788178.0724182
1768788178080.2307,1338.4615384615383,,0,-1,1768788178.0802307
1768788178088.0432,1350.9157509157508,,0,-1,1768788178.0880432
1768788178095.8557,1357.5091575091574,,0,-1,1768788178.0958557
1768788178103.6682,1366.3003663003662,,0,-1,1768788178.1036682
1768788178111.4807,1380.952380952381,,0,-1,1768788178.1114807
1768788178119.2932,1394.8717948717947,,0,-1,1768788178.1192932
1768788178127.1057,1407.3260073260071,,0,-1,1768788178.1271057
1768788178134.9182,1422.7106227106226,,0,-1,1768788178.1349182
1768788178142.7307,1430.03663003663,,0,-1,1768788178.1427307
1768788178150.5432,1436.6300366300366,,0,-1,1768788178.1505432
1768788178158.3557,1443.956043956044,,0,-1,1768788178.1583557
1768788178166.1682,1446.153846153846,,0,-1,1768788178.1661682
1768788178173.9807,1446.8864468864467,,0,-1,1768788178.1739807
1768788178181.7932,1452.7472527472526,,0,-1,1768788178.1817932
1768788178189.6057,1456.4102564102564,,0,-1,1768788178.1896057
1768788178197.4182,1461.5384615384614,,0,-1,1768788178.1974182
1768788178205.2307,1466.6666666666663,,0,-1,1768788178.2052307
1768788178213.0432,1469.5970695970695,,0,-1,1768788178.2130432
1768788178220.8557,1471.7948717948716,,0,-1,1768788178.2208557
1768788178228.6682,1477.6556776556777,,0,-1,1768788178.2286682
1768788178236.4807,1487.179487179487,,0,-1,1768788178.2364807
1768788178244.2932,1488.6446886446886,,0,-1,1768788178.2442932
1768788178252.1057,1489.3772893772891,,0,-1,1768788178.2521057
1768788178259.9182,1486.4468864468863,,0,-1,1768788178.2599182
1768788178267.7307,1480.5860805860805,,0,-1,1768788178.2677307
1768788178275.5432,1479.8534798534797,,0,-1,1768788178.2755432
1768788178283.3557,1476.923076923077,,0,-1,1768788178.2833557
1768788178291.1682,1468.8644688644688,,0,-1,1768788178.2911682
1768788178298.9807,1463.7362637362637,,0,-1,1768788178.2989807
1768788178306.7932,1460.07326007326,,0,-1,1768788178.3067932
1768788178314.6057,1452.014652014652,,0,-1,1768788178.3146057
1768788178322.4182,1448.3516483516482,,0,-1,1768788178.3224182
1768788178330.2307,1448.3516483516482,,0,-1,1768788178.3302307
1768788178338.0432,1448.3516483516482,,0,-1,1768788178.3380432
1768788178345.8557,1457.142857142857,,0,-1,1768788178.3458557
1768788178353.6682,1463.003663003663,,0,-1,1768788178.3536682
1768788178361.4807,1471.7948717948716,,0,-1,1768788178.3614807
1768788178369.2932,1477.6556776556777,,0,-1,1768788178.3692932
1768788178377.1057,1477.6556776556777,,0,-1,1768788178.3771057
1768788178384.9182,1476.923076923077,,0,-1,1768788178.3849182
1768788178392.7307,1468.8644688644688,,0,-1,1768788178.3927307
1768788178400.5432,1464.4688644688645,,0,-1,1768788178.4005432
1768788178408.3557,1456.4102564102564,,0,-1,1768788178.4083557
1768788178416.1682,1457.142857142857,,0,-1,1768788178.4161682
1768788178423.9807,1460.07326007326,,0,-1,1768788178.4239807
1768788178431.7932,1460.07326007326,,0,-1,1768788178.4317932
1768788178439.6057,1463.003663003663,,0,-1,1768788178.4396057
1768788178447.4182,1462.2710622710622,,0,-1,1768788178.4474182
1768788178455.2307,1463.003663003663,,0,-1,1768788178.4552307
1768788178463.0432,1466.6666666666663,,0,-1,1768788178.4630432
1768788178470.8557,1465.9340659340658,,0,-1,1768788178.4708557
1768788178478.6682,1467.3992673992673,,0,-1,1768788178.4786682
1768788178486.4807,1465.201465201465,,0,-1,1768788178.4864807
1768788178494.2932,1458.6080586080584,,0,-1,1768788178.4942932
1768788178502.1057,1457.142857142857,,0,-1,1768788178.5021057
1768788178509.9182,1454.212454212454,,0,-1,1768788178.5099182
1768788178517.7307,1453.479853479853,,0,-1,1768788178.5177307
1768788178525.5432,1458.6080586080584,,0,-1,1768788178.5255432
1768788178533.3557,1466.6666666666663,,0,-1,1768788178.5333557
1768788178541.1682,1470.3296703296703,,0,-1,1768788178.5411682
1768788178548.9807,1473.992673992674,,0,-1,1768788178.5489807
1768788178556.7932,1471.7948717948716,,0,-1,1768788178.5567932
1768788178564.6057,1465.201465201465,,0,-1,1768788178.5646057
1768788178572.4182,1464.4688644688645,,0,-1,1768788178.5724182
1768788178580.2307,1462.2710622710622,,0,-1,1768788178.5802307
1768788178588.0432,1458.6080586080584,,0,-1,1768788178.5880432
1768788178595.8557,1456.4102564102564,,0,-1,1768788178.5958557
1768788178603.6682,1448.3516483516482,,0,-1,1768788178.6036682
1768788178611.4807,1443.2234432234432,,0,-1,1768788178.6114807
1768788178619.2932,1435.8974358974358,,0,-1,1768788178.6192932
1768788178627.1057,1431.5018315018317,,0,-1,1768788178.6271057
1768788178634.9182,1427.106227106227,,0,-1,1768788178.6349182
1768788178642.7307,1421.245421245421,,0,-1,1768788178.6427307
1768788178650.5432,1421.9780219780218,,0,-1,1768788178.6505432
1768788178658.3557,1422.7106227106226,,0,-1,1768788178.6583557
1768788178666.1682,1422.7106227106226,,0,-1,1768788178.6661682
1768788178673.9807,1422.7106227106226,,0,-1,1768788178.6739807
1768788178681.7932,1411.7216117216117,,0,-1,1768788178.6817932
1768788178689.6057,1402.9304029304028,,0,-1,1768788178.6896057
1768788178697.4182,1393.4065934065934,,0,-1,1768788178.6974182
1768788178705.2307,1391.2087912087911,,0,-1,1768788178.7052307
1768788178713.0432,1392.6739926739926,,0,-1,1768788178.7130432
1768788178720.8557,1394.139194139194,,0,-1,1768788178.7208557
1768788178728.6682,1399.2673992673992,,0,-1,1768788178.7286682
1768788178736.4807,1396.3369963369962,,0,-1,1768788178.7364807
1768788178744.2932,1397.069597069597,,0,-1,1768788178.7442932
1768788178752.1057,1394.139194139194,,0,-1,1768788178.7521057
1768788178759.9182,1394.139194139194,,0,-1,1768788178.7599182
1768788178767.7307,1397.069597069597,,0,-1,1768788178.7677307
1768788178775.5432,1404.3956043956043,,0,-1,1768788178.7755432
1768788178783.3557,1408.7912087912086,,0,-1,1768788178.7833557
1768788178791.1682,1410.989010989011,,0,-1,1768788178.7911682
1768788178798.9807,1409.5238095238094,,0,-1,1768788178.7989807
1768788178806.7932,1407.3260073260071,,0,-1,1768788178.8067932
1768788178814.6057,1408.7912087912086,,0,-1,1768788178.8146057
1768788178822.4182,1407.3260073260071,,0,-1,1768788178.8224182
1768788178830.2307,1408.7912087912086,,0,-1,1768788178.8302307
1768788178838.0432,1403.6630036630036,,0,-1,1768788178.8380432
1768788178845.8557,1404.3956043956043,,0,-1,1768788178.8458557
1768788178853.6682,1400.0,,0,-1,1768788178.8536682
1768788178861.4807,1399.2673992673992,,0,-1,1768788178.8614807
1768788178869.2932,1398.5347985347985,,0,-1,1768788178.8692932
1768788178877.1057,1397.069597069597,,0,-1,1768788178.8771057
1768788178884.9182,1398.5347985347985,,0,-1,1768788178.8849182
1768788178892.7307,1400.7326007326003,,0,-1,1768788178.8927307
1768788178900.5432,1405.128205128205,,0,-1,1768788178.9005432
1768788178908.3557,1405.128205128205,,0,-1,1768788178.9083557
1768788178916.1682,1403.6630036630036,,0,-1,1768788178.9161682
1768788178923.9807,1400.7326007326003,,0,-1,1768788178.9239807
1768788178931.7932,1397.069597069597,,0,-1,1768788178.9317932
1768788178939.6057,1393.4065934065934,,0,-1,1768788178.9396057
1768788178947.4182,1391.941391941392,,0,-1,1768788178.9474182
1768788178955.2307,1383.8827838827838,,0,-1,1768788178.9552307
1768788178963.0432,1384.6153846153843,,0,-1,1768788178.9630432
1768788178970.8557,1383.150183150183,,0,-1,1768788178.9708557
1768788178978.6682,1386.8131868131868,,0,-1,1768788178.9786682
1768788178986.4807,1392.6739926739926,,0,-1,1768788178.9864807
1768788178994.2932,1396.3369963369962,,0,-1,1768788178.9942932
1768788179002.1057,1407.3260073260071,,0,-1,1768788179.0021057
1768788179009.9182,1415.3846153846152,,0,-1,1768788179.0099182
1768788179017.7307,1428.5714285714284,,0,-1,1768788179.0177307
1768788179025.5432,1442.4908424908424,,0,-1,1768788179.0255432
1768788179033.3557,1457.875457875458,,0,-1,1768788179.0333557
1768788179041.1682,1468.8644688644688,,0,-1,1768788179.0411682
1768788179048.9807,1479.8534798534797,,0,-1,1768788179.0489807
1768788179056.7932,1492.3076923076922,,0,-1,1768788179.0567932
1768788179064.6057,1504.7619047619046,,0,-1,1768788179.0646057
1768788179072.4182,1515.018315018315,,0,-1,1768788179.0724182
1768788179080.2307,1523.0769230769229,,0,-1,1768788179.0802307
1768788179088.0432,1530.4029304029302,,0,-1,1768788179.0880432
1768788179095.8557,1534.7985347985348,,0,-1,1768788179.0958557
1768788179103.6682,1535.5311355311355,,0,-1,1768788179.1036682
1768788179111.4807,1531.135531135531,,0,-1,1768788179.1114807
1768788179119.2932,1526.739926739927,,0,-1,1768788179.1192932
1768788179127.1057,1528.2051282051282,,0,-1,1768788179.1271057
1768788179134.9182,1531.8681318681315,,0,-1,1768788179.1349182
1768788179142.7307,1542.124542124542,,0,-1,1768788179.1427307
1768788179150.5432,1553.113553113553,,0,-1,1768788179.1505432
1768788179158.3557,1561.9047619047617,,0,-1,1768788179.1583557
1768788179166.1682,1570.6959706959706,,0,-1,1768788179.1661682
1768788179173.9807,1578.021978021978,,0,-1,1768788179.1739807
1768788179181.7932,1583.8827838827838,,0,-1,1768788179.1817932
1768788179189.6057,1586.080586080586,,0,-1,1768788179.1896057
1768788179197.4182,1588.278388278388,,0,-1,1768788179.1974182
1768788179205.2307,1587.545787545787,,0,-1,1768788179.2052307
1768788179213.0432,1585.3479853479853,,0,-1,1768788179.2130432
1768788179220.8557,1577.2893772893772,,0,-1,1768788179.2208557
1768788179228.6682,1568.4981684981683,,0,-1,1768788179.2286682
1768788179236.4807,1559.7069597069597,,0,-1,1768788179.2364807
1768788179244.2932,1553.8461538461538,,0,-1,1768788179.2442932
1768788179252.1057,1547.985347985348,,0,-1,1768788179.2521057
1768788179259.9182,1541.3919413919414,,0,-1,1768788179.2599182
1768788179267.7307,1539.194139194139,,0,-1,1768788179.2677307
1768788179275.5432,1541.3919413919414,,0,-1,1768788179.2755432
1768788179283.3557,1546.5201465201465,,0,-1,1768788179.2833557
1768788179291.1682,1551.6483516483515,,0,-1,1768788179.2911682
1768788179298.9807,1552.3809523809523,,0,-1,1768788179.2989807
1768788179306.7932,1548.7179487179485,,0,-1,1768788179.3067932
1768788179314.6057,1545.7875457875457,,0,-1,1768788179.3146057
1768788179322.4182,1545.7875457875457,,0,-1,1768788179.3224182
1768788179330.2307,1547.985347985348,,0,-1,1768788179.3302307
1768788179338.0432,1547.985347985348,,0,-1,1768788179.3380432
1768788179345.8557,1549.4505494505493,,0,-1,1768788179.3458557
1768788179353.6682,1550.9157509157508,,0,-1,1768788179.3536682
1768788179361.4807,1554.5787545787546,,0,-1,1768788179.3614807
1768788179369.2932,1553.113553113553,,0,-1,1768788179.3692932
1768788179377.1057,1548.7179487179485,,0,-1,1768788179.3771057
1768788179384.9182,1541.3919413919414,,0,-1,1768788179.3849182
1768788179392.7307,1532.6007326007325,,0,-1,1768788179.3927307
1768788179400.5432,1528.2051282051282,,0,-1,1768788179.4005432
1768788179408.3557,1528.2051282051282,,0,-1,1768788179.4083557
1768788179416.1682,1529.6703296703297,,0,-1,1768788179.4161682
1768788179423.9807,1531.135531135531,,0,-1,1768788179.4239807
1768788179431.7932,1528.937728937729,,0,-1,1768788179.4317932
1768788179439.6057,1523.8095238095236,,0,-1,1768788179.4396057
1768788179447.4182,1515.7509157509155,,0,-1,1768788179.4474182
1768788179455.2307,1509.1575091575091,,0,-1,1768788179.4552307
1768788179463.0432,1506.9597069597069,,0,-1,1768788179.4630432
1768788179470.8557,1507.6923076923076,,0,-1,1768788179.4708557
1768788179478.6682,1507.6923076923076,,0,-1,1768788179.4786682
1768788179486.4807,1509.89010989011,,0,-1,1768788179.4864807
1768788179494.2932,1513.5531135531137,,0,-1,1768788179.4942932
1768788179502.1057,1517.9487179487178,,0,-1,1768788179.5021057
1768788179509.9182,1520.8791208791208,,0,-1,1768788179.5099182
1768788179517.7307,1520.14652014652,,0,-1,1768788179.5177307
1768788179525.5432,1517.216117216117,,0,-1,1768788179.5255432
1768788179533.3557,1512.087912087912,,0,-1,1768788179.5333557
1768788179541.1682,1509.1575091575091,,0,-1,1768788179.5411682
1768788179548.9807,1507.6923076923076,,0,-1,1768788179.5489807
1768788179556.7932,1501.098901098901,,0,-1,1768788179.5567932
1768788179564.6057,1495.970695970696,,0,-1,1768788179.5646057
1768788179572.4182,1490.10989010989,,0,-1,1768788179.5724182
1768788179580.2307,1482.7838827838827,,0,-1,1768788179.5802307
1768788179588.0432,1478.3882783882782,,0,-1,1768788179.5880432
1768788179595.8557,1471.062271062271,,0,-1,1768788179.5958557
1768788179603.6682,1461.5384615384614,,0,-1,1768788179.6036682
1768788179611.4807,1452.7472527472526,,0,-1,1768788179.6114807
1768788179619.2932,1446.153846153846,,0,-1,1768788179.6192932
1768788179627.1057,1442.4908424908424,,0,-1,1768788179.6271057
1768788179634.9182,1442.4908424908424,,0,-1,1768788179.6349182
1768788179642.7307,1445.4212454212454,,0,-1,1768788179.6427307
1768788179650.5432,1450.5494505494505,,0,-1,1768788179.6505432
1768788179658.3557,1453.479853479853,,0,-1,1768788179.6583557
1768788179666.1682,1452.7472527472526,,0,-1,1768788179.6661682
1768788179673.9807,1449.8168498168498,,0,-1,1768788179.6739807
1768788179681.7932,1444.688644688645,,0,-1,1768788179.6817932
1768788179689.6057,1443.2234432234432,,0,-1,1768788179.6896057
1768788179697.4182,1443.2234432234432,,0,-1,1768788179.6974182
1768788179705.2307,1445.4212454212454,,0,-1,1768788179.7052307
1768788179713.0432,1449.8168498168498,,0,-1,1768788179.7130432
1768788179720.8557,1452.7472527472526,,0,-1,1768788179.7208557
1768788179728.6682,1453.479853479853,,0,-1,1768788179.7286682
1768788179736.4807,1452.014652014652,,0,-1,1768788179.7364807
1768788179744.2932,1451.2820512820513,,0,-1,1768788179.7442932
1768788179752.1057,1450.5494505494505,,0,-1,1768788179.7521057
1768788179759.9182,1449.8168498168498,,0,-1,1768788179.7599182
1768788179767.7307,1449.8168498168498,,0,-1,1768788179.7677307
1768788179775.5432,1447.6190476190477,,0,-1,1768788179.7755432
1768788179783.3557,1446.153846153846,,0,-1,1768788179.7833557
1768788179791.1682,1444.688644688645,,0,-1,1768788179.7911682
1768788179798.9807,1443.956043956044,,0,-1,1768788179.7989807
1768788179806.7932,1444.688644688645,,0,-1,1768788179.8067932
1768788179814.6057,1442.4908424908424,,0,-1,1768788179.8146057
1768788179822.4182,1438.095238095238,,0,-1,1768788179.8224182
1768788179830.2307,1434.4322344322345,,0,-1,1768788179.8302307
1768788179838.0432,1431.5018315018317,,0,-1,1768788179.8380432
1768788179845.8557,1423.4432234432234,,0,-1,1768788179.8458557
1768788179853.6682,1412.4542124542124,,0,-1,1768788179.8536682
1768788179861.4807,1402.197802197802,,0,-1,1768788179.8614807
1768788179869.2932,1395.6043956043954,,0,-1,1768788179.8692932
1768788179877.1057,1390.4761904761904,,0,-1,1768788179.8771057
1768788179884.9182,1389.0109890109889,,0,-1,1768788179.8849182
1768788179892.7307,1387.5457875457876,,0,-1,1768788179.8927307
1768788179900.5432,1386.8131868131868,,0,-1,1768788179.9005432
1768788179908.3557,1386.080586080586,,0,-1,1768788179.9083557
1768788179916.1682,1386.8131868131868,,0,-1,1768788179.9161682
1768788179923.9807,1389.0109890109889,,0,-1,1768788179.9239807
1768788179931.7932,1393.4065934065934,,0,-1,1768788179.9317932
1768788179939.6057,1403.6630036630036,,0,-1,1768788179.9396057
1768788179947.4182,1416.8498168498168,,0,-1,1768788179.9474182
1768788179955.2307,1433.6996336996335,,0,-1,1768788179.9552307
1768788179963.0432,1451.2820512820513,,0,-1,1768788179.9630432
1768788179970.8557,1467.3992673992673,,0,-1,1768788179.9708557
1768788179978.6682,1486.4468864468863,,0,-1,1768788179.9786682
1768788179986.4807,1504.7619047619046,,0,-1,1768788179.9864807
1768788179994.2932,1524.5421245421244,,0,-1,1768788179.9942932
1768788180002.1057,1542.857142857143,,0,-1,1768788180.0021057
1768788180009.9182,1558.241758241758,,0,-1,1768788180.0099182
1768788180017.7307,1574.3589743589744,,0,-1,1768788180.0177307
1768788180025.5432,1591.2087912087911,,0,-1,1768788180.0255432
1768788180033.3557,1605.8608058608058,,0,-1,1768788180.0333557
1768788180041.1682,1616.117216117216,,0,-1,1768788180.0411682
1768788180048.9807,1626.3736263736262,,0,-1,1768788180.0489807
1768788180056.7932,1631.5018315018317,,0,-1,1768788180.0567932
1768788180064.6057,1632.9670329670328,,0,-1,1768788180.0646057
1768788180072.4182,1632.9670329670328,,0,-1,1768788180.0724182
1768788180080.2307,1631.5018315018317,,0,-1,1768788180.0802307
1768788180088.0432,1632.9670329670328,,0,-1,1768788180.0880432
1768788180095.8557,1635.164835164835,,0,-1,1768788180.0958557
1768788180103.6682,1643.956043956044,,0,-1,1768788180.1036682
1768788180111.4807,1651.2820512820513,,0,-1,1768788180.1114807
1768788180119.2932,1658.6080586080584,,0,-1,1768788180.1192932
1768788180127.1057,1661.5384615384614,,0,-1,1768788180.1271057
1768788180134.9182,1657.875457875458,,0,-1,1768788180.1349182
1768788180142.7307,1654.9450549450548,,0,-1,1768788180.1427307
1768788180150.5432,1654.9450549450548,,0,-1,1768788180.1505432
1768788180158.3557,1656.4102564102564,,0,-1,1768788180.1583557
1768788180166.1682,1658.6080586080584,,0,-1,1768788180.1661682
1768788180173.9807,1658.6080586080584,,0,-1,1768788180.1739807
1768788180181.7932,1652.0146520146518,,0,-1,1768788180.1817932
1768788180189.6057,1645.4212454212452,,0,-1,1768788180.1896057
1768788180197.4182,1637.362637362637,,0,-1,1768788180.1974182
1768788180205.2307,1629.3040293040292,,0,-1,1768788180.2052307
1768788180213.0432,1619.047619047619,,0,-1,1768788180.2130432
1768788180220.8557,1609.5238095238094,,0,-1,1768788180.2208557
1768788180228.6682,1601.4652014652013,,0,-1,1768788180.2286682
1768788180236.4807,1597.069597069597,,0,-1,1768788180.2364807
1768788180244.2932,1594.8717948717947,,0,-1,1768788180.2442932
1768788180252.1057,1596.3369963369962,,0,-1,1768788180.2521057
1768788180259.9182,1600.7326007326003,,0,-1,1768788180.2599182
1768788180267.7307,1604.3956043956043,,0,-1,1768788180.2677307
1768788180275.5432,1606.5934065934066,,0,-1,1768788180.2755432
1768788180283.3557,1608.058608058608,,0,-1,1768788180.2833557
1768788180291.1682,1606.5934065934066,,0,-1,1768788180.2911682
1768788180298.9807,1606.5934065934066,,0,-1,1768788180.2989807
1768788180306.7932,1609.5238095238094,,0,-1,1768788180.3067932
1768788180314.6057,1615.3846153846152,,0,-1,1768788180.3146057
1768788180322.4182,1619.7802197802196,,0,-1,1768788180.3224182
1768788180330.2307,1620.5128205128203,,0,-1,1768788180.3302307
1768788180338.0432,1623.4432234432234,,0,-1,1768788180.3380432
1768788180345.8557,1620.5128205128203,,0,-1,1768788180.3458557
1768788180353.6682,1615.3846153846152,,0,-1,1768788180.3536682
1768788180361.4807,1611.7216117216117,,0,-1,1768788180.3614807
1768788180369.2932,1608.7912087912086,,0,-1,1768788180.3692932
1768788180377.1057,1604.3956043956043,,0,-1,1768788180.3771057
1768788180384.9182,1594.139194139194,,0,-1,1768788180.3849182
1768788180392.7307,1580.9523809523807,,0,-1,1768788180.3927307
1768788180400.5432,1567.7655677655678,,0,-1,1768788180.4005432
1768788180408.3557,1557.5091575091574,,0,-1,1768788180.4083557
1768788180416.1682,1553.113553113553,,0,-1,1768788180.4161682
1768788180423.9807,1551.6483516483515,,0,-1,1768788180.4239807
1768788180431.7932,1550.9157509157508,,0,-1,1768788180.4317932
1768788180439.6057,1547.985347985348,,0,-1,1768788180.4396057
1768788180447.4182,1538.4615384615383,,0,-1,1768788180.4474182
1768788180455.2307,1527.4725274725274,,0,-1,1768788180.4552307
1768788180463.0432,1515.7509157509155,,0,-1,1768788180.4630432
1768788180470.8557,1507.6923076923076,,0,-1,1768788180.4708557
1768788180478.6682,1498.9010989010987,,0,-1,1768788180.4786682
1768788180486.4807,1489.3772893772891,,0,-1,1768788180.4864807
1768788180494.2932,1483.5164835164835,,0,-1,1768788180.4942932
1768788180502.1057,1479.8534798534797,,0,-1,1768788180.5021057
1768788180509.9182,1476.923076923077,,0,-1,1768788180.5099182
1768788180517.7307,1473.260073260073,,0,-1,1768788180.5177307
1768788180525.5432,1473.992673992674,,0,-1,1768788180.5255432
1768788180533.3557,1479.120879120879,,0,-1,1768788180.5333557
1768788180541.1682,1479.8534798534797,,0,-1,1768788180.5411682
1768788180548.9807,1475.4578754578754,,0,-1,1768788180.5489807
1768788180556.7932,1475.4578754578754,,0,-1,1768788180.5567932
1768788180564.6057,1473.992673992674,,0,-1,1768788180.5646057
1768788180572.4182,1469.5970695970695,,0,-1,1768788180.5724182
1768788180580.2307,1467.3992673992673,,0,-1,1768788180.5802307
1768788180588.0432,1464.4688644688645,,0,-1,1768788180.5880432
1768788180595.8557,1462.2710622710622,,0,-1,1768788180.5958557
1768788180603.6682,1457.142857142857,,0,-1,1768788180.6036682
1768788180611.4807,1449.8168498168498,,0,-1,1768788180.6114807
1768788180619.2932,1442.4908424908424,,0,-1,1768788180.6192932
1768788180627.1057,1441.7582417582416,,0,-1,1768788180.6271057
1768788180634.9182,1443.2234432234432,,0,-1,1768788180.6349182
1768788180642.7307,1441.7582417582416,,0,-1,1768788180.6427307
1768788180650.5432,1441.0256410256409,,0,-1,1768788180.6505432
1768788180658.3557,1439.5604395604394,,0,-1,1768788180.6583557
1768788180666.1682,1436.6300366300366,,0,-1,1768788180.6661682
1768788180673.9807,1434.4322344322345,,0,-1,1768788180.6739807
1768788180681.7932,1434.4322344322345,,0,-1,1768788180.6817932
1768788180689.6057,1432.2344322344322,,0,-1,1768788180.6896057
1768788180697.4182,1431.5018315018317,,0,-1,1768788180.6974182
1768788180705.2307,1434.4322344322345,,0,-1,1768788180.7052307
1768788180713.0432,1438.8278388278388,,0,-1,1768788180.7130432
1768788180720.8557,1441.0256410256409,,0,-1,1768788180.7208557
1768788180728.6682,1442.4908424908424,,0,-1,1768788180.7286682
1768788180736.4807,1441.7582417582416,,0,-1,1768788180.7364807
1768788180744.2932,1439.5604395604394,,0,-1,1768788180.7442932
1768788180752.1057,1435.8974358974358,,0,-1,1768788180.7521057
1768788180759.9182,1431.5018315018317,,0,-1,1768788180.7599182
1768788180767.7307,1423.4432234432234,,0,-1,1768788180.7677307
1768788180775.5432,1413.1868131868132,,0,-1,1768788180.7755432
1768788180783.3557,1405.128205128205,,0,-1,1768788180.7833557
1768788180791.1682,1397.069597069597,,0,-1,1768788180.7911682
1768788180798.9807,1389.7435897435896,,0,-1,1768788180.7989807
1768788180806.7932,1380.2197802197802,,0,-1,1768788180.8067932
1768788180814.6057,1373.6263736263736,,0,-1,1768788180.8146057
1768788180822.4182,1371.428571428571,,0,-1,1768788180.8224182
1768788180830.2307,1369.230769230769,,0,-1,1768788180.8302307
1768788180838.0432,1369.230769230769,,0,-1,1768788180.8380432
1768788180845.8557,1369.230769230769,,0,-1,1768788180.8458557
1768788180853.6682,1369.9633699633698,,0,-1,1768788180.8536682
1768788180861.4807,1373.6263736263736,,0,-1,1768788180.8614807
1768788180869.2932,1377.2893772893772,,0,-1,1768788180.8692932
1768788180877.1057,1372.161172161172,,0,-1,1768788180.8771057
1768788180884.9182,1371.428571428571,,0,-1,1768788180.8849182
1768788180892.7307,1372.8937728937728,,0,-1,1768788180.8927307
1768788180900.5432,1373.6263736263736,,0,-1,1768788180.9005432
1768788180908.3557,1374.3589743589744,,0,-1,1768788180.9083557
1768788180916.1682,1378.7545787545787,,0,-1,1768788180.9161682
1768788180923.9807,1386.080586080586,,0,-1,1768788180.9239807
1768788180931.7932,1394.139194139194,,0,-1,1768788180.9317932
1768788180939.6057,1414.6520146520145,,0,-1,1768788180.9396057
1768788180947.4182,1438.095238095238,,0,-1,1768788180.9474182
1768788180955.2307,1465.9340659340658,,0,-1,1768788180.9552307
1768788180963.0432,1496.7032967032967,,0,-1,1768788180.9630432
1768788180970.8557,1520.8791208791208,,0,-1,1768788180.9708557
1768788180978.6682,1543.5897435897434,,0,-1,1768788180.9786682
1768788180986.4807,1563.3699633699632,,0,-1,1768788180.9864807
1768788180994.2932,1577.2893772893772,,0,-1,1768788180.9942932
1768788181002.1057,1592.6739926739926,,0,-1,1768788181.0021057
1768788181009.9182,1603.6630036630036,,0,-1,1768788181.0099182
1768788181017.7307,1609.5238095238094,,0,-1,1768788181.0177307
1768788181025.5432,1618.3150183150185,,0,-1,1768788181.0255432
1768788181033.3557,1621.245421245421,,0,-1,1768788181.0333557
1768788181041.1682,1626.3736263736262,,0,-1,1768788181.0411682
1768788181048.9807,1628.5714285714284,,0,-1,1768788181.0489807
1768788181056.7932,1629.3040293040292,,0,-1,1768788181.0567932
1768788181064.6057,1633.6996336996335,,0,-1,1768788181.0646057
1768788181072.4182,1633.6996336996335,,0,-1,1768788181.0724182
1768788181080.2307,1636.6300366300366,,0,-1,1768788181.0802307
1768788181088.0432,1638.8278388278386,,0,-1,1768788181.0880432
1768788181095.8557,1636.6300366300366,,0,-1,1768788181.0958557
1768788181103.6682,1638.095238095238,,0,-1,1768788181.1036682
1768788181111.4807,1635.8974358974358,,0,-1,1768788181.1114807
1768788181119.2932,1633.6996336996335,,0,-1,1768788181.1192932
1768788181127.1057,1638.8278388278386,,0,-1,1768788181.1271057
1768788181134.9182,1642.4908424908424,,0,-1,1768788181.1349182
1768788181142.7307,1642.4908424908424,,0,-1,1768788181.1427307
1768788181150.5432,1642.4908424908424,,0,-1,1768788181.1505432
1768788181158.3557,1634.4322344322345,,0,-1,1768788181.1583557
1768788181166.1682,1628.5714285714284,,0,-1,1768788181.1661682
1768788181173.9807,1621.245421245421,,0,-1,1768788181.1739807
1768788181181.7932,1610.2564102564102,,0,-1,1768788181.1817932
1768788181189.6057,1602.9304029304028,,0,-1,1768788181.1896057
1768788181197.4182,1588.278388278388,,0,-1,1768788181.1974182
1768788181205.2307,1575.091575091575,,0,-1,1768788181.2052307
1768788181213.0432,1567.7655677655678,,0,-1,1768788181.2130432
1768788181220.8557,1561.9047619047617,,0,-1,1768788181.2208557
1768788181228.6682,1562.6373626373625,,0,-1,1768788181.2286682
1768788181236.4807,1560.4395604395604,,0,-1,1768788181.2364807
1768788181244.2932,1558.241758241758,,0,-1,1768788181.2442932
1768788181252.1057,1558.974358974359,,0,-1,1768788181.2521057
1768788181259.9182,1556.043956043956,,0,-1,1768788181.2599182
1768788181267.7307,1552.3809523809523,,0,-1,1768788181.2677307
1768788181275.5432,1550.18315018315,,0,-1,1768788181.2755432
1768788181283.3557,1545.054945054945,,0,-1,1768788181.2833557
1768788181291.1682,1540.6593406593406,,0,-1,1768788181.2911682
1768788181298.9807,1533.3333333333333,,0,-1,1768788181.2989807
1768788181306.7932,1523.0769230769229,,0,-1,1768788181.3067932
1768788181314.6057,1516.4835164835165,,0,-1,1768788181.3146057
1768788181322.4182,1508.4249084249084,,0,-1,1768788181.3224182
1768788181330.2307,1501.098901098901,,0,-1,1768788181.3302307
1768788181338.0432,1499.6336996336995,,0,-1,1768788181.3380432
1768788181345.8557,1499.6336996336995,,0,-1,1768788181.3458557
1768788181353.6682,1498.168498168498,,0,-1,1768788181.3536682
1768788181361.4807,1498.168498168498,,0,-1,1768788181.3614807
1768788181369.2932,1498.168498168498,,0,-1,1768788181.3692932
1768788181377.1057,1492.3076923076922,,0,-1,1768788181.3771057
1768788181384.9182,1488.6446886446886,,0,-1,1768788181.3849182
1768788181392.7307,1479.120879120879,,0,-1,1768788181.3927307
1768788181400.5432,1471.062271062271,,0,-1,1768788181.4005432
1768788181408.3557,1460.07326007326,,0,-1,1768788181.4083557
1768788181416.1682,1450.5494505494505,,0,-1,1768788181.4161682
1768788181423.9807,1441.7582417582416,,0,-1,1768788181.4239807
1768788181431.7932,1432.2344322344322,,0,-1,1768788181.4317932
1768788181439.6057,1429.3040293040292,,0,-1,1768788181.4396057
1768788181447.4182,1424.9084249084249,,0,-1,1768788181.4474182
1768788181455.2307,1427.8388278388277,,1,2,1768788181.4552307
1768788181463.0432,1425.6410256410256,,1,2,1768788181.4630432
1768788181470.8557,1427.8388278388277,,1,2,1768788181.4708557
1768788181478.6682,1424.175824175824,,1,2,1768788181.4786682
1768788181486.4807,1422.7106227106226,,1,2,1768788181.4864807
1768788181494.2932,1413.9194139194135,,1,2,1768788181.4942932
1768788181502.1057,1410.989010989011,,1,2,1768788181.5021057
1768788181509.9182,1405.8608058608058,,1,2,1768788181.5099182
1768788181517.7307,1405.128205128205,,1,2,1768788181.5177307
1768788181525.5432,1398.5347985347985,,1,2,1768788181.5255432
1768788181533.3557,1394.139194139194,,1,2,1768788181.5333557
1768788181541.1682,1382.4175824175825,,1,2,1768788181.5411682
1768788181548.9807,1374.3589743589744,,1,2,1768788181.5489807
1768788181556.7932,1367.7655677655678,,1,2,1768788181.5567932
1768788181564.6057,1358.974358974359,,1,2,1768788181.5646057
1768788181572.4182,1355.311355311355,,1,2,1768788181.5724182
1768788181580.2307,1348.7179487179487,,1,2,1768788181.5802307
1768788181588.0432,1347.2527472527472,,1,2,1768788181.5880432
1768788181595.8557,1349.4505494505493,,1,2,1768788181.5958557
1768788181603.6682,1350.18315018315,,1,2,1768788181.6036682
1768788181611.4807,1354.5787545787546,,1,2,1768788181.6114807
1768788181619.2932,1356.043956043956,,1,2,1768788181.6192932
1768788181627.1057,1364.102564102564,,1,2,1768788181.6271057
1768788181634.9182,1367.032967032967,,1,2,1768788181.6349182
1768788181642.7307,1369.9633699633698,,1,2,1768788181.6427307
1768788181650.5432,1369.9633699633698,,1,2,1768788181.6505432
1768788181658.3557,1369.9633699633698,,1,2,1768788181.6583557
1768788181666.1682,1367.7655677655678,,1,2,1768788181.6661682
1768788181673.9807,1367.032967032967,,1,2,1768788181.6739807
1768788181681.7932,1363.3699633699632,,1,2,1768788181.6817932
1768788181689.6057,1361.1721611721612,,1,2,1768788181.6896057
1768788181697.4182,1358.241758241758,,1,2,1768788181.6974182
1768788181705.2307,1360.4395604395604,,1,2,1768788181.7052307
1768788181713.0432,1363.3699633699632,,1,2,1768788181.7130432
1768788181720.8557,1364.102564102564,,1,2,1768788181.7208557
1768788181728.6682,1361.904761904762,,1,2,1768788181.7286682
1768788181736.4807,1354.5787545787546,,1,2,1768788181.7364807
1768788181744.2932,1348.7179487179487,,1,2,1768788181.7442932
1768788181752.1057,1339.92673992674,,1,2,1768788181.7521057
1768788181759.9182,1340.6593406593406,,1,2,1768788181.7599182
1768788181767.7307,1342.124542124542,,1,2,1768788181.7677307
1768788181775.5432,1339.92673992674,,1,2,1768788181.7755432
1768788181783.3557,1339.92673992674,,1,2,1768788181.7833557
1768788181791.1682,1331.135531135531,,1,2,1768788181.7911682
1768788181798.9807,1328.937728937729,,1,2,1768788181.7989807
1768788181806.7932,1323.076923076923,,1,2,1768788181.8067932
1768788181814.6057,1317.9487179487178,,1,2,1768788181.8146057
1768788181822.4182,1314.2857142857142,,1,2,1768788181.8224182
1768788181830.2307,1306.9597069597069,,1,2,1768788181.8302307
1768788181838.0432,1304.0293040293038,,1,2,1768788181.8380432
1768788181845.8557,1304.0293040293038,,1,2,1768788181.8458557
1768788181853.6682,1301.8315018315018,,1,2,1768788181.8536682
1768788181861.4807,1306.227106227106,,1,2,1768788181.8614807
1768788181869.2932,1308.4249084249084,,1,2,1768788181.8692932
1768788181877.1057,1310.6227106227104,,1,2,1768788181.8771057
1768788181884.9182,1309.89010989011,,1,2,1768788181.8849182
1768788181892.7307,1304.0293040293038,,1,2,1768788181.8927307
1768788181900.5432,1300.3663003663005,,1,2,1768788181.9005432
1768788181908.3557,1292.3076923076922,,1,2,1768788181.9083557
1768788181916.1682,1290.10989010989,,1,2,1768788181.9161682
1768788181923.9807,1287.179487179487,,1,2,1768788181.9239807
1768788181931.7932,1282.7838827838827,,1,2,1768788181.9317932
1768788181939.6057,1283.5164835164835,,1,2,1768788181.9396057
1768788181947.4182,1287.179487179487,,1,2,1768788181.9474182
1768788181955.2307,1290.10989010989,,1,2,1768788181.9552307
1768788181963.0432,1293.040293040293,,1,2,1768788181.9630432
1768788181970.8557,1298.9010989010987,,1,2,1768788181.9708557
1768788181978.6682,1309.1575091575091,,1,2,1768788181.9786682
1768788181986.4807,1321.6117216117216,,1,2,1768788181.9864807
1768788181994.2932,1339.92673992674,,1,2,1768788181.9942932
1768788182002.1057,1361.1721611721612,,1,2,1768788182.0021057
1768788182009.9182,1375.091575091575,,1,2,1768788182.0099182
1768788182017.7307,1388.278388278388,,1,2,1768788182.0177307
1768788182025.5432,1404.3956043956043,,1,2,1768788182.0255432
1768788182033.3557,1413.9194139194135,,1,2,1768788182.0333557
1768788182041.1682,1419.7802197802198,,1,2,1768788182.0411682
1768788182048.9807,1430.7692307692307,,1,2,1768788182.0489807
1768788182056.7932,1433.6996336996335,,1,2,1768788182.0567932
1768788182064.6057,1433.6996336996335,,1,2,1768788182.0646057
1768788182072.4182,1432.2344322344322,,1,2,1768788182.0724182
1768788182080.2307,1427.8388278388277,,1,2,1768788182.0802307
1768788182088.0432,1428.5714285714284,,1,2,1768788182.0880432
1768788182095.8557,1424.9084249084249,,1,2,1768788182.0958557
1768788182103.6682,1419.7802197802198,,1,2,1768788182.1036682
1768788182111.4807,1418.3150183150185,,1,2,1768788182.1114807
1768788182119.2932,1413.9194139194135,,1,2,1768788182.1192932
1768788182127.1057,1408.058608058608,,1,2,1768788182.1271057
1768788182134.9182,1407.3260073260071,,1,2,1768788182.1349182
1768788182142.7307,1405.128205128205,,1,2,1768788182.1427307
1768788182150.5432,1402.197802197802,,1,2,1768788182.1505432
1768788182158.3557,1402.197802197802,,1,2,1768788182.1583557
1768788182166.1682,1398.5347985347985,,1,2,1768788182.1661682
1768788182173.9807,1399.2673992673992,,1,2,1768788182.1739807
1768788182181.7932,1397.069597069597,,1,2,1768788182.1817932
1768788182189.6057,1395.6043956043954,,1,2,1768788182.1896057
1768788182197.4182,1394.8717948717947,,1,2,1768788182.1974182
1768788182205.2307,1389.0109890109889,,1,2,1768788182.2052307
1768788182213.0432,1386.080586080586,,1,2,1768788182.2130432
1768788182220.8557,1388.278388278388,,1,2,1768788182.2208557
1768788182228.6682,1387.5457875457876,,1,2,1768788182.2286682
1768788182236.4807,1387.5457875457876,,1,2,1768788182.2364807
1768788182244.2932,1389.7435897435896,,1,2,1768788182.2442932
1768788182252.1057,1389.0109890109889,,1,2,1768788182.2521057
1768788182259.9182,1384.6153846153843,,1,2,1768788182.2599182
1768788182267.7307,1376.5567765567764,,1,2,1768788182.2677307
1768788182275.5432,1369.230769230769,,1,2,1768788182.2755432
1768788182283.3557,1363.3699633699632,,1,2,1768788182.2833557
1768788182291.1682,1357.5091575091574,,1,2,1768788182.2911682
1768788182298.9807,1353.8461538461538,,1,2,1768788182.2989807
1768788182306.7932,1354.5787545787546,,1,2,1768788182.3067932
1768788182314.6057,1359.7069597069597,,1,2,1768788182.3146057
1768788182322.4182,1361.904761904762,,1,2,1768788182.3224182
1768788182330.2307,1358.241758241758,,1,2,1768788182.3302307
1768788182338.0432,1349.4505494505493,,1,2,1768788182.3380432
1768788182345.8557,1346.5201465201465,,1,2,1768788182.3458557
1768788182353.6682,1344.3223443223442,,1,2,1768788182.3536682
1768788182361.4807,1342.124542124542,,1,2,1768788182.3614807
1768788182369.2932,1339.194139194139,,1,2,1768788182.3692932
1768788182377.1057,1334.7985347985348,,1,2,1768788182.3771057
1768788182384.9182,1334.7985347985348,,1,2,1768788182.3849182
1768788182392.7307,1336.263736263736,,1,2,1768788182.3927307
1768788182400.5432,1338.4615384615383,,1,2,1768788182.4005432
1768788182408.3557,1337.7289377289376,,1,2,1768788182.4083557
1768788182416.1682,1331.135531135531,,1,2,1768788182.4161682
1768788182423.9807,1321.6117216117216,,1,2,1768788182.4239807
1768788182431.7932,1317.9487179487178,,1,2,1768788182.4317932
1768788182439.6057,1317.216117216117,,1,2,1768788182.4396057
1768788182447.4182,1313.5531135531137,,1,2,1768788182.4474182
1768788182455.2307,1312.087912087912,,1,2,1768788182.4552307
1768788182463.0432,1312.087912087912,,1,2,1768788182.4630432
1768788182470.8557,1309.89010989011,,1,2,1768788182.4708557
1768788182478.6682,1306.227106227106,,1,2,1768788182.4786682
1768788182486.4807,1302.5641025641023,,1,2,1768788182.4864807
1768788182494.2932,1299.6336996336995,,1,2,1768788182.4942932
1768788182502.1057,1297.4358974358977,,1,2,1768788182.5021057
1768788182509.9182,1294.5054945054944,,1,2,1768788182.5099182
1768788182517.7307,1295.970695970696,,1,2,1768788182.5177307
1768788182525.5432,1294.5054945054944,,1,2,1768788182.5255432
1768788182533.3557,1293.7728937728937,,1,2,1768788182.5333557
1768788182541.1682,1293.040293040293,,1,2,1768788182.5411682
1768788182548.9807,1292.3076923076922,,1,2,1768788182.5489807
1768788182556.7932,1290.10989010989,,1,2,1768788182.5567932
1768788182564.6057,1287.9120879120878,,1,2,1768788182.5646057
1768788182572.4182,1287.9120879120878,,1,2,1768788182.5724182
1768788182580.2307,1290.10989010989,,1,2,1768788182.5802307
1768788182588.0432,1291.5750915750914,,1,2,1768788182.5880432
1768788182595.8557,1289.3772893772891,,1,2,1768788182.5958557
1768788182603.6682,1284.9816849816848,,1,2,1768788182.6036682
1768788182611.4807,1277.6556776556777,,1,2,1768788182.6114807
1768788182619.2932,1271.062271062271,,1,2,1768788182.6192932
1768788182627.1057,1265.2014652014652,,1,2,1768788182.6271057
1768788182634.9182,1263.003663003663,,1,2,1768788182.6349182
1768788182642.7307,1263.7362637362637,,1,2,1768788182.6427307
1768788182650.5432,1268.8644688644688,,1,2,1768788182.6505432
1768788182658.3557,1274.7252747252746,,1,2,1768788182.6583557
1768788182666.1682,1279.8534798534797,,1,2,1768788182.6661682
1768788182673.9807,1282.7838827838827,,1,2,1768788182.6739807
1768788182681.7932,1284.9816849816848,,1,2,1768788182.6817932
1768788182689.6057,1286.4468864468863,,1,2,1768788182.6896057
1768788182697.4182,1290.10989010989,,1,2,1768788182.6974182
1768788182705.2307,1290.8424908424909,,1,2,1768788182.7052307
1768788182713.0432,1284.9816849816848,,1,2,1768788182.7130432
1768788182720.8557,1273.992673992674,,1,2,1768788182.7208557
1768788182728.6682,1263.003663003663,,1,2,1768788182.7286682
1768788182736.4807,1254.212454212454,,1,2,1768788182.7364807
1768788182744.2932,1249.8168498168498,,1,2,1768788182.7442932
1768788182752.1057,1246.153846153846,,1,2,1768788182.7521057
1768788182759.9182,1242.4908424908424,,1,2,1768788182.7599182
1768788182767.7307,1241.0256410256409,,1,2,1768788182.7677307
1768788182775.5432,1238.095238095238,,1,2,1768788182.7755432
1768788182783.3557,1236.6300366300366,,1,2,1768788182.7833557
1768788182791.1682,1235.8974358974358,,1,2,1768788182.7911682
1768788182798.9807,1237.362637362637,,1,2,1768788182.7989807
1768788182806.7932,1241.7582417582416,,1,2,1768788182.8067932
1768788182814.6057,1245.4212454212454,,1,2,1768788182.8146057
1768788182822.4182,1245.4212454212454,,1,2,1768788182.8224182
1768788182830.2307,1245.4212454212454,,1,2,1768788182.8302307
1768788182838.0432,1248.3516483516482,,1,2,1768788182.8380432
1768788182845.8557,1251.2820512820513,,1,2,1768788182.8458557
1768788182853.6682,1256.4102564102564,,1,2,1768788182.8536682
1768788182861.4807,1262.2710622710622,,1,2,1768788182.8614807
1768788182869.2932,1271.062271062271,,1,2,1768788182.8692932
1768788182877.1057,1274.7252747252746,,1,2,1768788182.8771057
1768788182884.9182,1276.190476190476,,1,2,1768788182.8849182
1768788182892.7307,1276.923076923077,,1,2,1768788182.8927307
1768788182900.5432,1276.923076923077,,1,2,1768788182.9005432
1768788182908.3557,1278.3882783882782,,1,2,1768788182.9083557
1768788182916.1682,1280.5860805860805,,1,2,1768788182.9161682
1768788182923.9807,1283.5164835164835,,1,2,1768788182.9239807
1768788182931.7932,1284.9816849816848,,1,2,1768788182.9317932
1768788182939.6057,1287.179487179487,,1,2,1768788182.9396057
1768788182947.4182,1289.3772893772891,,1,2,1768788182.9474182
1768788182955.2307,1293.040293040293,,1,2,1768788182.9552307
1768788182963.0432,1296.7032967032967,,1,2,1768788182.9630432
1768788182970.8557,1298.9010989010987,,1,2,1768788182.9708557
1768788182978.6682,1301.098901098901,,1,2,1768788182.9786682
1768788182986.4807,1305.4945054945051,,1,2,1768788182.9864807
1768788182994.2932,1311.3553113553112,,1,2,1768788182.9942932
1768788183002.1057,1315.018315018315,,1,2,1768788183.0021057
1768788183009.9182,1315.7509157509155,,1,2,1768788183.0099182
1768788183017.7307,1315.018315018315,,1,2,1768788183.0177307
1768788183025.5432,1316.4835164835165,,1,2,1768788183.0255432
1768788183033.3557,1321.6117216117216,,1,2,1768788183.0333557
1768788183041.1682,1331.135531135531,,1,2,1768788183.0411682
1768788183048.9807,1339.194139194139,,1,2,1768788183.0489807
1768788183056.7932,1342.857142857143,,1,2,1768788183.0567932
1768788183064.6057,1343.5897435897434,,1,2,1768788183.0646057
1768788183072.4182,1339.92673992674,,1,2,1768788183.0724182
1768788183080.2307,1335.5311355311355,,1,2,1768788183.0802307
1768788183088.0432,1330.4029304029302,,1,2,1768788183.0880432
1768788183095.8557,1326.007326007326,,1,2,1768788183.0958557
1768788183103.6682,1322.3443223443223,,1,2,1768788183.1036682
1768788183111.4807,1320.14652014652,,1,2,1768788183.1114807
1768788183119.2932,1317.9487179487178,,1,2,1768788183.1192932
1768788183127.1057,1312.8205128205127,,1,2,1768788183.1271057
1768788183134.9182,1306.9597069597069,,1,2,1768788183.1349182
1768788183142.7307,1298.9010989010987,,1,2,1768788183.1427307
1768788183150.5432,1292.3076923076922,,1,2,1768788183.1505432
1768788183158.3557,1287.179487179487,,1,2,1768788183.1583557
1768788183166.1682,1285.7142857142856,,1,2,1768788183.1661682
1768788183173.9807,1287.179487179487,,1,2,1768788183.1739807
1768788183181.7932,1290.8424908424909,,1,2,1768788183.1817932
1768788183189.6057,1295.2380952380952,,1,2,1768788183.1896057
1768788183197.4182,1298.9010989010987,,1,2,1768788183.1974182
1768788183205.2307,1301.098901098901,,1,2,1768788183.2052307
1768788183213.0432,1301.098901098901,,1,2,1768788183.2130432
1768788183220.8557,1300.3663003663005,,1,2,1768788183.2208557
1768788183228.6682,1299.6336996336995,,1,2,1768788183.2286682
1768788183236.4807,1296.7032967032967,,1,2,1768788183.2364807
1768788183244.2932,1295.970695970696,,1,2,1768788183.2442932
1768788183252.1057,1298.9010989010987,,1,2,1768788183.2521057
1768788183259.9182,1303.2967032967033,,1,2,1768788183.2599182
1768788183267.7307,1306.9597069597069,,1,2,1768788183.2677307
1768788183275.5432,1310.6227106227104,,1,2,1768788183.2755432
1768788183283.3557,1311.3553113553112,,1,2,1768788183.2833557
1768788183291.1682,1303.2967032967033,,1,2,1768788183.2911682
1768788183298.9807,1293.040293040293,,1,2,1768788183.2989807
1768788183306.7932,1280.5860805860805,,1,2,1768788183.3067932
1768788183314.6057,1273.260073260073,,1,2,1768788183.3146057
1768788183322.4182,1264.4688644688645,,1,2,1768788183.3224182
1768788183330.2307,1263.003663003663,,1,2,1768788183.3302307
1768788183338.0432,1265.9340659340658,,1,2,1768788183.3380432
1768788183345.8557,1271.7948717948716,,1,2,1768788183.3458557
1768788183353.6682,1278.3882783882782,,1,2,1768788183.3536682
1768788183361.4807,1283.5164835164835,,1,2,1768788183.3614807
1768788183369.2932,1284.2490842490845,,1,2,1768788183.3692932
1768788183377.1057,1279.8534798534797,,1,2,1768788183.3771057
1768788183384.9182,1274.7252747252746,,1,2,1768788183.3849182
1768788183392.7307,1271.7948717948716,,1,2,1768788183.3927307
1768788183400.5432,1269.5970695970695,,1,2,1768788183.4005432
1768788183408.3557,1269.5970695970695,,1,2,1768788183.4083557
1768788183416.1682,1268.131868131868,,1,2,1768788183.4161682
1768788183423.9807,1265.9340659340658,,1,2,1768788183.4239807
1768788183431.7932,1264.4688644688645,,1,2,1768788183.4317932
1768788183439.6057,1268.131868131868,,1,2,1768788183.4396057
1768788183447.4182,1273.992673992674,,1,2,1768788183.4474182
1768788183455.2307,1282.051282051282,,1,2,1768788183.4552307
1768788183463.0432,1290.10989010989,,1,2,1768788183.4630432
1768788183470.8557,1295.970695970696,,1,2,1768788183.4708557
1768788183478.6682,1302.5641025641023,,1,2,1768788183.4786682
1768788183486.4807,1309.89010989011,,1,2,1768788183.4864807
1768788183494.2932,1312.087912087912,,1,2,1768788183.4942932
1768788183502.1057,1309.89010989011,,1,2,1768788183.5021057
1768788183509.9182,1304.7619047619046,,1,2,1768788183.5099182
1768788183517.7307,1297.4358974358977,,1,2,1768788183.5177307
1768788183525.5432,1294.5054945054944,,1,2,1768788183.5255432
1768788183533.3557,1292.3076923076922,,1,2,1768788183.5333557
1768788183541.1682,1290.8424908424909,,1,2,1768788183.5411682
1768788183548.9807,1287.9120879120878,,1,2,1768788183.5489807
1768788183556.7932,1284.9816849816848,,1,2,1768788183.5567932
1768788183564.6057,1282.051282051282,,1,2,1768788183.5646057
1768788183572.4182,1279.120879120879,,1,2,1768788183.5724182
1768788183580.2307,1273.992673992674,,1,2,1768788183.5802307
1768788183588.0432,1263.7362637362637,,1,2,1768788183.5880432
1768788183595.8557,1252.014652014652,,1,2,1768788183.5958557
1768788183603.6682,1243.2234432234432,,1,2,1768788183.6036682
1768788183611.4807,1237.362637362637,,1,2,1768788183.6114807
1768788183619.2932,1227.106227106227,,1,2,1768788183.6192932
1768788183627.1057,1219.7802197802198,,1,2,1768788183.6271057
1768788183634.9182,1213.9194139194135,,1,2,1768788183.6349182
1768788183642.7307,1213.1868131868132,,1,2,1768788183.6427307
1768788183650.5432,1215.3846153846152,,1,2,1768788183.6505432
1768788183658.3557,1221.245421245421,,1,2,1768788183.6583557
1768788183666.1682,1229.3040293040292,,1,2,1768788183.6661682
1768788183673.9807,1239.5604395604396,,1,2,1768788183.6739807
1768788183681.7932,1248.3516483516482,,1,2,1768788183.6817932
1768788183689.6057,1252.014652014652,,1,2,1768788183.6896057
1768788183697.4182,1251.2820512820513,,1,2,1768788183.6974182
1768788183705.2307,1252.014652014652,,1,2,1768788183.7052307
1768788183713.0432,1257.142857142857,,1,2,1768788183.7130432
1768788183720.8557,1256.4102564102564,,1,2,1768788183.7208557
1768788183728.6682,1252.7472527472526,,1,2,1768788183.7286682
1768788183736.4807,1251.2820512820513,,1,2,1768788183.7364807
1768788183744.2932,1243.956043956044,,1,2,1768788183.7442932
1768788183752.1057,1235.164835164835,,1,2,1768788183.7521057
1768788183759.9182,1230.7692307692307,,1,2,1768788183.7599182
1768788183767.7307,1230.03663003663,,1,2,1768788183.7677307
1768788183775.5432,1227.8388278388277,,1,2,1768788183.7755432
1768788183783.3557,1230.03663003663,,1,2,1768788183.7833557
1768788183791.1682,1235.164835164835,,1,2,1768788183.7911682
1768788183798.9807,1248.3516483516482,,1,2,1768788183.7989807
1768788183806.7932,1267.3992673992673,,1,2,1768788183.8067932
1768788183814.6057,1282.7838827838827,,1,2,1768788183.8146057
1768788183822.4182,1291.5750915750914,,1,2,1768788183.8224182
1768788183830.2307,1300.3663003663005,,1,2,1768788183.8302307
1768788183838.0432,1309.1575091575091,,1,2,1768788183.8380432
1768788183845.8557,1320.14652014652,,1,2,1768788183.8458557
1768788183853.6682,1324.5421245421244,,1,2,1768788183.8536682
1768788183861.4807,1324.5421245421244,,1,2,1768788183.8614807
1768788183869.2932,1323.076923076923,,1,2,1768788183.8692932
1768788183877.1057,1320.8791208791208,,1,2,1768788183.8771057
1768788183884.9182,1317.216117216117,,1,2,1768788183.8849182
1768788183892.7307,1312.087912087912,,1,2,1768788183.8927307
1768788183900.5432,1305.4945054945051,,1,2,1768788183.9005432
1768788183908.3557,1298.9010989010987,,1,2,1768788183.9083557
1768788183916.1682,1293.7728937728937,,1,2,1768788183.9161682
1768788183923.9807,1284.9816849816848,,1,2,1768788183.9239807
1768788183931.7932,1278.3882783882782,,1,2,1768788183.9317932
1768788183939.6057,1278.3882783882782,,1,2,1768788183.9396057
1768788183947.4182,1279.120879120879,,1,2,1768788183.9474182
1768788183955.2307,1281.3186813186812,,1,2,1768788183.9552307
1768788183963.0432,1287.179487179487,,1,2,1768788183.9630432
1768788183970.8557,1291.5750915750914,,1,2,1768788183.9708557
1768788183978.6682,1295.970695970696,,1,2,1768788183.9786682
1768788183986.5112,1301.8315018315018,,1,2,1768788183.9865112
1768788183994.2932,1308.4249084249084,,1,2,1768788183.9942932
1768788184002.1057,1309.1575091575091,,1,2,1768788184.0021057
1768788184009.9182,1304.0293040293038,,1,2,1768788184.0099182
1768788184017.7307,1299.6336996336995,,1,2,1768788184.0177307
1768788184025.5432,1293.040293040293,,1,2,1768788184.0255432
1768788184033.3557,1289.3772893772891,,1,2,1768788184.0333557
1768788184041.1682,1287.9120879120878,,1,2,1768788184.0411682
1768788184048.9807,1287.179487179487,,1,2,1768788184.0489807
1768788184056.7932,1290.10989010989,,1,2,1768788184.0567932
1768788184064.6057,1291.5750915750914,,1,2,1768788184.0646057
1768788184072.4182,1295.970695970696,,1,2,1768788184.0724182
1768788184080.2307,1296.7032967032967,,1,2,1768788184.0802307
1768788184088.0432,1293.040293040293,,1,2,1768788184.0880432
1768788184095.8557,1289.3772893772891,,1,2,1768788184.0958557
1768788184103.6682,1282.051282051282,,1,2,1768788184.1036682
1768788184111.4807,1277.6556776556777,,1,2,1768788184.1114807
1768788184119.2932,1276.190476190476,,1,2,1768788184.1192932
1768788184127.1057,1277.6556776556777,,1,2,1768788184.1271057
1768788184134.9182,1276.190476190476,,1,2,1768788184.1349182
1768788184142.7307,1278.3882783882782,,1,2,1768788184.1427307
1768788184150.5432,1279.120879120879,,1,2,1768788184.1505432
1768788184158.3557,1276.190476190476,,1,2,1768788184.1583557
1768788184166.1682,1274.7252747252746,,1,2,1768788184.1661682
1768788184173.9807,1271.062271062271,,1,2,1768788184.1739807
1768788184181.7932,1263.003663003663,,1,2,1768788184.1817932
1768788184189.6057,1265.2014652014652,,1,2,1768788184.1896057
1768788184197.4182,1270.3296703296703,,1,2,1768788184.1974182
1768788184205.2307,1276.190476190476,,1,2,1768788184.2052307
1768788184213.0432,1283.5164835164835,,1,2,1768788184.2130432
1768788184220.8557,1290.8424908424909,,1,2,1768788184.2208557
1768788184228.6682,1293.040293040293,,1,2,1768788184.2286682
1768788184236.4807,1291.5750915750914,,1,2,1768788184.2364807
1768788184244.2932,1292.3076923076922,,1,2,1768788184.2442932
1768788184252.1057,1290.8424908424909,,1,2,1768788184.2521057
1768788184259.9182,1287.9120879120878,,1,2,1768788184.2599182
1768788184267.7307,1286.4468864468863,,1,2,1768788184.2677307
1768788184275.5432,1280.5860805860805,,1,2,1768788184.2755432
1768788184283.3557,1272.5274725274724,,1,2,1768788184.2833557
1768788184291.1682,1273.260073260073,,1,2,1768788184.2911682
1768788184298.9807,1277.6556776556777,,1,2,1768788184.2989807
1768788184306.7932,1281.3186813186812,,1,2,1768788184.3067932
1768788184314.6057,1287.9120879120878,,1,2,1768788184.3146057
1768788184322.4182,1287.9120879120878,,1,2,1768788184.3224182
1768788184330.2307,1290.10989010989,,1,2,1768788184.3302307
1768788184338.0432,1287.9120879120878,,1,2,1768788184.3380432
1768788184345.8557,1290.8424908424909,,1,2,1768788184.3458557
1768788184353.6682,1286.4468864468863,,1,2,1768788184.3536682
1768788184361.4807,1284.2490842490845,,1,2,1768788184.3614807
1768788184369.2932,1279.120879120879,,1,2,1768788184.3692932
1768788184377.1057,1272.5274725274724,,1,2,1768788184.3771057
1768788184384.9182,1271.7948717948716,,1,2,1768788184.3849182
1768788184392.7307,1271.062271062271,,1,2,1768788184.3927307
1768788184400.5432,1273.992673992674,,1,2,1768788184.4005432
1768788184408.3557,1270.3296703296703,,1,2,1768788184.4083557
1768788184416.1682,1266.6666666666663,,1,2,1768788184.4161682
1768788184423.9807,1264.4688644688645,,1,2,1768788184.4239807
1768788184431.7932,1260.805860805861,,1,2,1768788184.4317932
1768788184439.6057,1264.4688644688645,,1,2,1768788184.4396057
1768788184447.4182,1264.4688644688645,,1,2,1768788184.4474182
1768788184455.2307,1268.131868131868,,1,2,1768788184.4552307
1768788184463.0432,1265.9340659340658,,1,2,1768788184.4630432
1768788184470.8557,1268.131868131868,,1,2,1768788184.4708557
1768788184478.6682,1265.9340659340658,,1,2,1768788184.4786682
1768788184486.4807,1263.003663003663,,1,2,1768788184.4864807
1768788184494.2932,1265.9340659340658,,1,2,1768788184.4942932
1768788184502.1057,1274.7252747252746,,0,-1,1768788184.5021057
1768788184509.9182,1278.3882783882782,,0,-1,1768788184.5099182
1768788184517.7307,1282.7838827838827,,0,-1,1768788184.5177307
1768788184525.5432,1278.3882783882782,,0,-1,1768788184.5255432
1768788184533.3557,1280.5860805860805,,0,-1,1768788184.5333557
1768788184541.1682,1282.7838827838827,,0,-1,1768788184.5411682
1768788184548.9807,1284.2490842490845,,0,-1,1768788184.5489807
1768788184556.7932,1288.6446886446886,,0,-1,1768788184.5567932
1768788184564.6057,1289.3772893772891,,0,-1,1768788184.5646057
1768788184572.4182,1293.7728937728937,,0,-1,1768788184.5724182
1768788184580.2307,1290.10989010989,,0,-1,1768788184.5802307
1768788184588.0432,1289.3772893772891,,0,-1,1768788184.5880432
1768788184595.8557,1283.5164835164835,,0,-1,1768788184.5958557
1768788184603.6682,1283.5164835164835,,0,-1,1768788184.6036682
1768788184611.4807,1284.9816849816848,,0,-1,1768788184.6114807
1768788184619.2932,1283.5164835164835,,0,-1,1768788184.6192932
1768788184627.1057,1289.3772893772891,,0,-1,1768788184.6271057
1768788184634.9182,1294.5054945054944,,0,-1,1768788184.6349182
1768788184642.7307,1303.2967032967033,,0,-1,1768788184.6427307
1768788184650.5432,1311.3553113553112,,0,-1,1768788184.6505432
1768788184658.3557,1315.7509157509155,,0,-1,1768788184.6583557
1768788184666.1682,1320.14652014652,,0,-1,1768788184.6661682
1768788184673.9807,1323.8095238095236,,0,-1,1768788184.6739807
1768788184681.7932,1320.14652014652,,0,-1,1768788184.6817932
1768788184689.6057,1320.8791208791208,,0,-1,1768788184.6896057
1768788184697.4182,1318.6813186813183,,0,-1,1768788184.6974182
1768788184705.2307,1325.2747252747251,,0,-1,1768788184.7052307
1768788184713.0432,1329.6703296703297,,0,-1,1768788184.7130432
1768788184720.8557,1333.3333333333333,,0,-1,1768788184.7208557
1768788184728.6682,1332.6007326007325,,0,-1,1768788184.7286682
1768788184736.4807,1331.135531135531,,0,-1,1768788184.7364807
1768788184744.2932,1327.4725274725274,,0,-1,1768788184.7442932
1768788184752.1057,1326.007326007326,,0,-1,1768788184.7521057
1768788184759.9182,1323.076923076923,,0,-1,1768788184.7599182
1768788184767.7307,1322.3443223443223,,0,-1,1768788184.7677307
1768788184775.5432,1323.076923076923,,0,-1,1768788184.7755432
1768788184783.3557,1317.9487179487178,,0,-1,1768788184.7833557
1768788184791.1682,1315.7509157509155,,0,-1,1768788184.7911682
1768788184798.9807,1308.4249084249084,,0,-1,1768788184.7989807
1768788184806.7932,1306.227106227106,,0,-1,1768788184.8067932
1768788184814.6057,1301.098901098901,,0,-1,1768788184.8146057
1768788184822.4182,1296.7032967032967,,0,-1,1768788184.8224182
1768788184830.2307,1290.10989010989,,0,-1,1768788184.8302307
1768788184838.0432,1290.10989010989,,0,-1,1768788184.8380432
1768788184845.8557,1287.179487179487,,0,-1,1768788184.8458557
1768788184853.6682,1287.9120879120878,,0,-1,1768788184.8536682
1768788184861.4807,1287.179487179487,,0,-1,1768788184.8614807
1768788184869.2932,1282.7838827838827,,0,-1,1768788184.8692932
1768788184877.1057,1284.2490842490845,,0,-1,1768788184.8771057
1768788184884.9182,1282.051282051282,,0,-1,1768788184.8849182
1768788184892.7307,1283.5164835164835,,0,-1,1768788184.8927307
1768788184900.5432,1284.2490842490845,,0,-1,1768788184.9005432
1768788184908.3557,1288.6446886446886,,0,-1,1768788184.9083557
1768788184916.1682,1289.3772893772891,,0,-1,1768788184.9161682
1768788184923.9807,1297.4358974358977,,0,-1,1768788184.9239807
1768788184931.7932,1300.3663003663005,,0,-1,1768788184.9317932
1768788184939.6057,1307.6923076923076,,0,-1,1768788184.9396057
1768788184947.4182,1311.3553113553112,,0,-1,1768788184.9474182
1768788184955.2307,1317.9487179487178,,0,-1,1768788184.9552307
1768788184963.0432,1318.6813186813183,,0,-1,1768788184.9630432
1768788184970.8557,1325.2747252747251,,0,-1,1768788184.9708557
1768788184978.6682,1326.007326007326,,0,-1,1768788184.9786682
1768788184986.4807,1327.4725274725274,,0,-1,1768788184.9864807
1768788184994.2932,1328.2051282051282,,0,-1,1768788184.9942932
1768788185002.1057,1328.937728937729,,0,-1,1768788185.0021057
1768788185009.9182,1326.007326007326,,0,-1,1768788185.0099182
1768788185017.7307,1327.4725274725274,,0,-1,1768788185.0177307
1768788185025.5432,1323.076923076923,,0,-1,1768788185.0255432
1768788185033.3557,1326.007326007326,,0,-1,1768788185.0333557
1768788185041.1682,1323.8095238095236,,0,-1,1768788185.0411682
1768788185048.9807,1326.007326007326,,0,-1,1768788185.0489807
1768788185056.7932,1325.2747252747251,,0,-1,1768788185.0567932
1768788185064.6057,1322.3443223443223,,0,-1,1768788185.0646057
1768788185072.4182,1320.8791208791208,,0,-1,1768788185.0724182
1768788185080.2307,1320.14652014652,,0,-1,1768788185.0802307
1768788185088.0432,1318.6813186813183,,0,-1,1768788185.0880432
1768788185095.8557,1315.018315018315,,0,-1,1768788185.0958557
1768788185103.6682,1317.9487179487178,,0,-1,1768788185.1036682
1768788185111.4807,1317.9487179487178,,0,-1,1768788185.1114807
1768788185119.2932,1323.076923076923,,0,-1,1768788185.1192932
1768788185127.1057,1326.739926739927,,0,-1,1768788185.1271057
1768788185134.9182,1333.3333333333333,,0,-1,1768788185.1349182
1768788185142.7307,1335.5311355311355,,0,-1,1768788185.1427307
1768788185150.5432,1334.7985347985348,,0,-1,1768788185.1505432
1768788185158.3557,1320.14652014652,,0,-1,1768788185.1583557
1768788185166.1682,1306.9597069597069,,0,-1,1768788185.1661682
1768788185173.9807,1296.7032967032967,,0,-1,1768788185.1739807
1768788185181.7932,1296.7032967032967,,0,-1,1768788185.1817932
1768788185189.6057,1294.5054945054944,,0,-1,1768788185.1896057
1768788185197.4182,1298.9010989010987,,0,-1,1768788185.1974182
1768788185205.2307,1299.6336996336995,,0,-1,1768788185.2052307
1768788185213.0432,1297.4358974358977,,0,-1,1768788185.2130432
1768788185220.8557,1295.970695970696,,0,-1,1768788185.2208557
1768788185228.6682,1295.970695970696,,0,-1,1768788185.2286682
1768788185236.4807,1301.098901098901,,0,-1,1768788185.2364807
1768788185244.2932,1301.098901098901,,0,-1,1768788185.2442932
1768788185252.1057,1302.5641025641023,,0,-1,1768788185.2521057
1768788185259.9182,1302.5641025641023,,0,-1,1768788185.2599182
1768788185267.7307,1299.6336996336995,,0,-1,1768788185.2677307
1768788185275.5432,1301.8315018315018,,0,-1,1768788185.2755432
1768788185283.3557,1299.6336996336995,,0,-1,1768788185.2833557
1768788185291.1682,1301.098901098901,,0,-1,1768788185.2911682
1768788185298.9807,1304.7619047619046,,0,-1,1768788185.2989807
1768788185306.7932,1301.8315018315018,,0,-1,1768788185.3067932
1768788185314.6057,1304.0293040293038,,0,-1,1768788185.3146057
1768788185322.4182,1305.4945054945051,,0,-1,1768788185.3224182
1768788185330.2307,1306.9597069597069,,0,-1,1768788185.3302307
1768788185338.0432,1312.087912087912,,0,-1,1768788185.3380432
1768788185345.8557,1313.5531135531137,,0,-1,1768788185.3458557
1768788185353.6682,1318.6813186813183,,0,-1,1768788185.3536682
1768788185361.4807,1319.4139194139193,,0,-1,1768788185.3614807
1768788185369.2932,1315.7509157509155,,0,-1,1768788185.3692932
1768788185377.1057,1313.5531135531137,,0,-1,1768788185.3771057
1768788185384.9182,1307.6923076923076,,0,-1,1768788185.3849182
1768788185392.7307,1304.0293040293038,,0,-1,1768788185.3927307
1768788185400.5432,1295.2380952380952,,0,-1,1768788185.4005432
1768788185408.3557,1292.3076923076922,,0,-1,1768788185.4083557
1768788185416.1682,1290.10989010989,,0,-1,1768788185.4161682
1768788185423.9807,1290.10989010989,,0,-1,1768788185.4239807
1768788185431.7932,1296.7032967032967,,0,-1,1768788185.4317932
1768788185439.6057,1304.0293040293038,,0,-1,1768788185.4396057
1768788185447.4182,1307.6923076923076,,0,-1,1768788185.4474182
1768788185455.2307,1316.4835164835165,,0,-1,1768788185.4552307
1768788185463.0432,1317.9487179487178,,0,-1,1768788185.4630432
1768788185470.8557,1320.8791208791208,,0,-1,1768788185.4708557
1768788185478.6682,1324.5421245421244,,0,-1,1768788185.4786682
1768788185486.5112,1321.6117216117216,,0,-1,1768788185.4865112
1768788185494.2932,1322.3443223443223,,0,-1,1768788185.4942932
1768788185502.1057,1320.14652014652,,0,-1,1768788185.5021057
1768788185509.9182,1314.2857142857142,,0,-1,1768788185.5099182
1768788185517.7307,1312.8205128205127,,0,-1,1768788185.5177307
1768788185525.5432,1304.7619047619046,,0,-1,1768788185.5255432
1768788185533.3557,1299.6336996336995,,0,-1,1768788185.5333557
1768788185541.1682,1299.6336996336995,,0,-1,1768788185.5411682
1768788185548.9807,1300.3663003663005,,0,-1,1768788185.5489807
1768788185556.7932,1306.227106227106,,0,-1,1768788185.5567932
1768788185564.6057,1309.89010989011,,0,-1,1768788185.5646057
1768788185572.4182,1318.6813186813183,,0,-1,1768788185.5724182
1768788185580.2307,1328.2051282051282,,0,-1,1768788185.5802307
1768788185588.0432,1332.6007326007325,,0,-1,1768788185.5880432
1768788185595.8557,1339.92673992674,,0,-1,1768788185.5958557
1768788185603.6682,1347.2527472527472,,0,-1,1768788185.6036682
1768788185611.4807,1352.3809523809523,,0,-1,1768788185.6114807
1768788185619.2932,1359.7069597069597,,0,-1,1768788185.6192932
1768788185627.1057,1364.8351648351647,,0,-1,1768788185.6271057
1768788185634.9182,1368.4981684981683,,0,-1,1768788185.6349182
1768788185642.7307,1370.6959706959706,,0,-1,1768788185.6427307
1768788185650.5432,1373.6263736263736,,0,-1,1768788185.6505432
1768788185658.3557,1375.8241758241757,,0,-1,1768788185.6583557
1768788185666.1682,1378.7545787545787,,0,-1,1768788185.6661682
1768788185673.9807,1379.4871794871794,,0,-1,1768788185.6739807
1768788185681.7932,1380.952380952381,,0,-1,1768788185.6817932
1768788185689.6057,1385.3479853479853,,0,-1,1768788185.6896057
1768788185697.4182,1386.080586080586,,0,-1,1768788185.6974182
1768788185705.2307,1386.080586080586,,0,-1,1768788185.7052307
1768788185713.0432,1387.5457875457876,,0,-1,1768788185.7130432
1768788185720.8557,1384.6153846153843,,0,-1,1768788185.7208557
1768788185728.6682,1378.021978021978,,0,-1,1768788185.7286682
1768788185736.4807,1372.8937728937728,,0,-1,1768788185.7364807
1768788185744.2932,1369.9633699633698,,0,-1,1768788185.7442932
1768788185752.1057,1367.032967032967,,0,-1,1768788185.7521057
1768788185759.9182,1358.974358974359,,0,-1,1768788185.7599182
1768788185767.7307,1353.8461538461538,,0,-1,1768788185.7677307
1768788185775.5432,1354.5787545787546,,0,-1,1768788185.7755432
1768788185783.3557,1355.311355311355,,0,-1,1768788185.7833557
1768788185791.1682,1354.5787545787546,,0,-1,1768788185.7911682
1768788185798.9807,1356.7765567765566,,0,-1,1768788185.7989807
1768788185806.7932,1362.6373626373625,,0,-1,1768788185.8067932
1768788185814.6057,1369.230769230769,,0,-1,1768788185.8146057
1768788185822.4182,1377.2893772893772,,0,-1,1768788185.8224182
1768788185830.2307,1386.080586080586,,0,-1,1768788185.8302307
1768788185838.0432,1393.4065934065934,,0,-1,1768788185.8380432
1768788185845.8557,1399.2673992673992,,0,-1,1768788185.8458557
1768788185853.6682,1402.197802197802,,0,-1,1768788185.8536682
1768788185861.4807,1401.4652014652013,,0,-1,1768788185.8614807
1768788185869.2932,1397.069597069597,,0,-1,1768788185.8692932
1768788185877.1057,1392.6739926739926,,0,-1,1768788185.8771057
1768788185884.9182,1389.7435897435896,,0,-1,1768788185.8849182
1768788185892.7307,1383.150183150183,,0,-1,1768788185.8927307
1768788185900.5432,1375.8241758241757,,0,-1,1768788185.9005432
1768788185908.3557,1369.230769230769,,0,-1,1768788185.9083557
1768788185916.1682,1364.8351648351647,,0,-1,1768788185.9161682
1768788185923.9807,1359.7069597069597,,0,-1,1768788185.9239807
1768788185931.7932,1356.043956043956,,0,-1,1768788185.9317932
1768788185939.6057,1352.3809523809523,,0,-1,1768788185.9396057
1768788185947.4182,1349.4505494505493,,0,-1,1768788185.9474182
1768788185955.2307,1347.2527472527472,,0,-1,1768788185.9552307
1768788185963.0432,1345.7875457875457,,0,-1,1768788185.9630432
1768788185970.8557,1346.5201465201465,,0,-1,1768788185.9708557
1768788185978.6682,1349.4505494505493,,0,-1,1768788185.9786682
1768788185986.4807,1353.8461538461538,,0,-1,1768788185.9864807
1768788185994.2932,1356.043956043956,,0,-1,1768788185.9942932
1768788186002.1057,1356.043956043956,,0,-1,1768788186.0021057
1768788186009.9182,1356.7765567765566,,0,-1,1768788186.0099182
1768788186017.7307,1357.5091575091574,,0,-1,1768788186.0177307
1768788186025.5432,1355.311355311355,,0,-1,1768788186.0255432
1768788186033.3557,1350.9157509157508,,0,-1,1768788186.0333557
1768788186041.1682,1347.985347985348,,0,-1,1768788186.0411682
1768788186048.9807,1345.7875457875457,,0,-1,1768788186.0489807
1768788186056.7932,1339.92673992674,,0,-1,1768788186.0567932
1768788186064.6057,1335.5311355311355,,0,-1,1768788186.0646057
1768788186072.4182,1334.7985347985348,,0,-1,1768788186.0724182
1768788186080.2307,1334.7985347985348,,0,-1,1768788186.0802307
1768788186088.0432,1338.4615384615383,,0,-1,1768788186.0880432
1768788186095.8557,1342.857142857143,,0,-1,1768788186.0958557
1768788186103.6682,1342.124542124542,,0,-1,1768788186.1036682
1768788186111.4807,1337.7289377289376,,0,-1,1768788186.1114807
1768788186119.2932,1331.8681318681315,,0,-1,1768788186.1192932
1768788186127.1057,1325.2747252747251,,0,-1,1768788186.1271057
1768788186134.9182,1320.14652014652,,0,-1,1768788186.1349182
1768788186142.7307,1317.9487179487178,,0,-1,1768788186.1427307
1768788186150.5432,1317.216117216117,,0,-1,1768788186.1505432
1768788186158.3557,1319.4139194139193,,0,-1,1768788186.1583557
1768788186166.1682,1323.076923076923,,0,-1,1768788186.1661682
1768788186173.9807,1327.4725274725274,,0,-1,1768788186.1739807
1768788186181.7932,1336.263736263736,,0,-1,1768788186.1817932
1768788186189.6057,1342.124542124542,,0,-1,1768788186.1896057
1768788186197.4182,1345.7875457875457,,0,-1,1768788186.1974182
1768788186205.2307,1349.4505494505493,,0,-1,1768788186.2052307
1768788186213.0432,1347.2527472527472,,0,-1,1768788186.2130432
1768788186220.8557,1340.6593406593406,,0,-1,1768788186.2208557
1768788186228.6682,1333.3333333333333,,0,-1,1768788186.2286682
1768788186236.4807,1330.4029304029302,,0,-1,1768788186.2364807
1768788186244.2932,1332.6007326007325,,0,-1,1768788186.2442932
1768788186252.1057,1335.5311355311355,,0,-1,1768788186.2521057
1768788186259.9182,1334.7985347985348,,0,-1,1768788186.2599182
1768788186267.7307,1336.9963369963368,,0,-1,1768788186.2677307
1768788186275.5432,1338.4615384615383,,0,-1,1768788186.2755432
1768788186283.3557,1337.7289377289376,,0,-1,1768788186.2833557
1768788186291.1682,1339.92673992674,,0,-1,1768788186.2911682
1768788186298.9807,1344.3223443223442,,0,-1,1768788186.2989807
1768788186306.7932,1353.113553113553,,0,-1,1768788186.3067932
1768788186314.6057,1358.974358974359,,0,-1,1768788186.3146057
1768788186322.4182,1361.904761904762,,0,-1,1768788186.3224182
1768788186330.2307,1358.974358974359,,0,-1,1768788186.3302307
1768788186338.0432,1354.5787545787546,,0,-1,1768788186.3380432
1768788186345.8557,1347.985347985348,,0,-1,1768788186.3458557
1768788186353.6682,1341.3919413919414,,0,-1,1768788186.3536682
1768788186361.4807,1332.6007326007325,,0,-1,1768788186.3614807
1768788186369.2932,1323.8095238095236,,0,-1,1768788186.3692932
1768788186377.1057,1315.7509157509155,,0,-1,1768788186.3771057
1768788186384.9182,1310.6227106227104,,0,-1,1768788186.3849182
1768788186392.7307,1309.89010989011,,0,-1,1768788186.3927307
1768788186400.5432,1312.8205128205127,,0,-1,1768788186.4005432
1768788186408.3557,1315.018315018315,,0,-1,1768788186.4083557
1768788186416.1682,1315.7509157509155,,0,-1,1768788186.4161682
1768788186423.9807,1317.216117216117,,0,-1,1768788186.4239807
1768788186431.7932,1320.14652014652,,0,-1,1768788186.4317932
1768788186439.6057,1326.739926739927,,0,-1,1768788186.4396057
1768788186447.4182,1331.135531135531,,0,-1,1768788186.4474182
1768788186455.2307,1333.3333333333333,,0,-1,1768788186.4552307
1768788186463.0432,1333.3333333333333,,0,-1,1768788186.4630432
1768788186470.8557,1331.135531135531,,0,-1,1768788186.4708557
1768788186478.6682,1328.937728937729,,0,-1,1768788186.4786682
1768788186486.4807,1329.6703296703297,,0,-1,1768788186.4864807
1768788186494.2932,1326.739926739927,,0,-1,1768788186.4942932
1768788186502.1057,1330.4029304029302,,0,-1,1768788186.5021057
1768788186509.9182,1326.007326007326,,0,-1,1768788186.5099182
1768788186517.7307,1321.6117216117216,,0,-1,1768788186.5177307
1768788186525.5432,1319.4139194139193,,0,-1,1768788186.5255432
1768788186533.3557,1317.216117216117,,0,-1,1768788186.5333557
1768788186541.1682,1317.216117216117,,0,-1,1768788186.5411682
1768788186548.9807,1318.6813186813183,,0,-1,1768788186.5489807
1768788186556.7932,1322.3443223443223,,0,-1,1768788186.5567932
1768788186564.6057,1330.4029304029302,,0,-1,1768788186.5646057
1768788186572.4182,1339.194139194139,,0,-1,1768788186.5724182
1768788186580.2307,1350.9157509157508,,0,-1,1768788186.5802307
1768788186588.0432,1364.102564102564,,0,-1,1768788186.5880432
1768788186595.8557,1373.6263736263736,,0,-1,1768788186.5958557
1768788186603.6682,1381.6849816849815,,0,-1,1768788186.6036682
1768788186611.4807,1386.8131868131868,,0,-1,1768788186.6114807
1768788186619.2932,1389.0109890109889,,0,-1,1768788186.6192932
1768788186627.1057,1391.2087912087911,,0,-1,1768788186.6271057
1768788186634.9182,1391.941391941392,,0,-1,1768788186.6349182
1768788186642.7307,1394.8717948717947,,0,-1,1768788186.6427307
1768788186650.5432,1392.6739926739926,,0,-1,1768788186.6505432
1768788186658.3557,1393.4065934065934,,0,-1,1768788186.6583557
1768788186666.1682,1395.6043956043954,,0,-1,1768788186.6661682
1768788186673.9807,1398.5347985347985,,0,-1,1768788186.6739807
1768788186681.7932,1397.8021978021975,,0,-1,1768788186.6817932
1768788186689.6057,1399.2673992673992,,0,-1,1768788186.6896057
1768788186697.4182,1402.9304029304028,,0,-1,1768788186.6974182
1768788186705.2307,1406.5934065934066,,0,-1,1768788186.7052307
1768788186713.0432,1408.058608058608,,0,-1,1768788186.7130432
1768788186720.8557,1408.058608058608,,0,-1,1768788186.7208557
1768788186728.6682,1399.2673992673992,,0,-1,1768788186.7286682
1768788186736.4807,1386.8131868131868,,0,-1,1768788186.7364807
1768788186744.2932,1375.091575091575,,0,-1,1768788186.7442932
1768788186752.1057,1364.8351648351647,,0,-1,1768788186.7521057
1768788186759.9182,1358.974358974359,,0,-1,1768788186.7599182
1768788186767.7307,1355.311355311355,,0,-1,1768788186.7677307
1768788186775.5432,1353.8461538461538,,0,-1,1768788186.7755432
1768788186783.3557,1357.5091575091574,,0,-1,1768788186.7833557
1768788186791.1682,1361.1721611721612,,0,-1,1768788186.7911682
1768788186798.9807,1367.032967032967,,0,-1,1768788186.7989807
1768788186806.7932,1372.161172161172,,0,-1,1768788186.8067932
1768788186814.6057,1377.2893772893772,,0,-1,1768788186.8146057
1768788186822.4182,1380.952380952381,,0,-1,1768788186.8224182
1768788186830.2307,1382.4175824175825,,0,-1,1768788186.8302307
1768788186838.0432,1385.3479853479853,,0,-1,1768788186.8380432
1768788186845.8557,1390.4761904761904,,0,-1,1768788186.8458557
1768788186853.6682,1393.4065934065934,,0,-1,1768788186.8536682
1768788186861.4807,1392.6739926739926,,0,-1,1768788186.8614807
1768788186869.2932,1391.941391941392,,0,-1,1768788186.8692932
1768788186877.1057,1386.080586080586,,0,-1,1768788186.8771057
1768788186884.9182,1381.6849816849815,,0,-1,1768788186.8849182
1768788186892.7307,1378.021978021978,,0,-1,1768788186.8927307
1768788186900.5432,1380.2197802197802,,0,-1,1768788186.9005432
1768788186908.3557,1385.3479853479853,,0,-1,1768788186.9083557
1768788186916.1682,1388.278388278388,,0,-1,1768788186.9161682
1768788186923.9807,1389.7435897435896,,0,-1,1768788186.9239807
1768788186931.7932,1389.7435897435896,,0,-1,1768788186.9317932
1768788186939.6057,1387.5457875457876,,0,-1,1768788186.9396057
1768788186947.4182,1384.6153846153843,,0,-1,1768788186.9474182
1768788186955.2307,1380.952380952381,,0,-1,1768788186.9552307
1768788186963.0432,1382.4175824175825,,0,-1,1768788186.9630432
1768788186970.8557,1386.080586080586,,0,-1,1768788186.9708557
1768788186978.6682,1389.7435897435896,,0,-1,1768788186.9786682
1768788186986.4807,1391.941391941392,,0,-1,1768788186.9864807
1768788186994.2932,1396.3369963369962,,0,-1,1768788186.9942932
1768788187002.1057,1401.4652014652013,,0,-1,1768788187.0021057
1768788187009.9182,1405.128205128205,,0,-1,1768788187.0099182
1768788187017.7307,1408.058608058608,,0,-1,1768788187.0177307
1768788187025.5432,1406.5934065934066,,0,-1,1768788187.0255432
1768788187033.3557,1402.197802197802,,0,-1,1768788187.0333557
1768788187041.1682,1397.8021978021975,,0,-1,1768788187.0411682
1768788187048.9807,1395.6043956043954,,0,-1,1768788187.0489807
1768788187056.7932,1391.941391941392,,0,-1,1768788187.0567932
1768788187064.6057,1389.0109890109889,,0,-1,1768788187.0646057
1768788187072.4182,1389.0109890109889,,0,-1,1768788187.0724182
1768788187080.2307,1391.2087912087911,,0,-1,1768788187.0802307
1768788187088.0432,1391.941391941392,,0,-1,1768788187.0880432
1768788187095.8557,1387.5457875457876,,0,-1,1768788187.0958557
1768788187103.6682,1379.4871794871794,,0,-1,1768788187.1036682
1768788187111.4807,1372.8937728937728,,0,-1,1768788187.1114807
1768788187119.2932,1369.9633699633698,,0,-1,1768788187.1192932
1768788187127.1057,1372.161172161172,,0,-1,1768788187.1271057
1768788187134.9182,1375.091575091575,,0,-1,1768788187.1349182
1768788187142.7307,1375.8241758241757,,0,-1,1768788187.1427307
1768788187150.5432,1376.5567765567764,,0,-1,1768788187.1505432
1768788187158.3557,1377.2893772893772,,0,-1,1768788187.1583557
1768788187166.1682,1374.3589743589744,,0,-1,1768788187.1661682
1768788187173.9807,1372.8937728937728,,0,-1,1768788187.1739807
1768788187181.7932,1370.6959706959706,,0,-1,1768788187.1817932
1768788187189.6057,1369.9633699633698,,0,-1,1768788187.1896057
1768788187197.4182,1372.8937728937728,,0,-1,1768788187.1974182
1768788187205.2307,1374.3589743589744,,0,-1,1768788187.2052307
1768788187213.0432,1375.091575091575,,0,-1,1768788187.2130432
1768788187220.8557,1376.5567765567764,,0,-1,1768788187.2208557
1768788187228.6682,1375.8241758241757,,0,-1,1768788187.2286682
1768788187236.4807,1374.3589743589744,,0,-1,1768788187.2364807
1768788187244.2932,1374.3589743589744,,0,-1,1768788187.2442932
1768788187252.1057,1377.2893772893772,,0,-1,1768788187.2521057
1768788187259.9182,1383.8827838827838,,0,-1,1768788187.2599182
1768788187267.7307,1395.6043956043954,,0,-1,1768788187.2677307
1768788187275.5432,1407.3260073260071,,0,-1,1768788187.2755432
1768788187283.3557,1417.5824175824175,,0,-1,1768788187.2833557
1768788187291.1682,1426.3736263736262,,0,-1,1768788187.2911682
1768788187298.9807,1438.8278388278388,,0,-1,1768788187.2989807
1768788187306.7932,1445.4212454212454,,0,-1,1768788187.3067932
1768788187314.6057,1449.084249084249,,0,-1,1768788187.3146057
1768788187322.4182,1449.084249084249,,0,-1,1768788187.3224182
1768788187330.2307,1446.8864468864467,,0,-1,1768788187.3302307
1768788187338.0432,1444.688644688645,,0,-1,1768788187.3380432
1768788187345.8557,1444.688644688645,,0,-1,1768788187.3458557
1768788187353.6682,1446.8864468864467,,0,-1,1768788187.3536682
1768788187361.4807,1446.153846153846,,0,-1,1768788187.3614807
1768788187369.2932,1443.956043956044,,0,-1,1768788187.3692932
1768788187377.1057,1441.0256410256409,,0,-1,1768788187.3771057
1768788187384.9182,1438.8278388278388,,0,-1,1768788187.3849182
1768788187392.7307,1435.8974358974358,,0,-1,1768788187.3927307
1768788187400.5432,1431.5018315018317,,0,-1,1768788187.4005432
1768788187408.3557,1426.3736263736262,,0,-1,1768788187.4083557
1768788187416.1682,1423.4432234432234,,0,-1,1768788187.4161682
1768788187423.9807,1421.245421245421,,0,-1,1768788187.4239807
1768788187431.7932,1420.5128205128203,,0,-1,1768788187.4317932
1768788187439.6057,1421.245421245421,,0,-1,1768788187.4396057
1768788187447.4182,1424.9084249084249,,0,-1,1768788187.4474182
1768788187455.2307,1427.8388278388277,,0,-1,1768788187.4552307
1768788187463.0432,1426.3736263736262,,0,-1,1768788187.4630432
1768788187470.8557,1424.9084249084249,,0,-1,1768788187.4708557
1768788187478.6682,1424.175824175824,,0,-1,1768788187.4786682
1768788187486.4807,1424.175824175824,,0,-1,1768788187.4864807
1768788187494.2932,1426.3736263736262,,0,-1,1768788187.4942932
1768788187502.1057,1425.6410256410256,,0,-1,1768788187.5021057
1768788187509.9182,1423.4432234432234,,0,-1,1768788187.5099182
1768788187517.7307,1417.5824175824175,,0,-1,1768788187.5177307
1768788187525.5432,1410.2564102564102,,0,-1,1768788187.5255432
1768788187533.3557,1401.4652014652013,,0,-1,1768788187.5333557
1768788187541.1682,1394.139194139194,,0,-1,1768788187.5411682
1768788187548.9807,1392.6739926739926,,0,-1,1768788187.5489807
1768788187556.7932,1394.139194139194,,0,-1,1768788187.5567932
1768788187564.6057,1400.7326007326003,,0,-1,1768788187.5646057
