Shimmer_6815_Timestamp_Unix_CAL,Shimmer_6815_PPG_A13_CAL,Unnamed: 2,inhale,inhale_id,epoch_sec
1768785838807.6782,10.256410256410255,,0,-1,1768785838.8076782
1768785838815.4907,92.3076923076923,,0,-1,1768785838.8154907
1768785838823.3032,210.98901098901095,,0,-1,1768785838.8233032
1768785838831.1155,343.5897435897436,,0,-1,1768785838.8311155
1768785838838.9282,478.3882783882784,,0,-1,1768785838.8389282
1768785838846.7407,610.2564102564102,,0,-1,1768785838.8467407
1768785838854.5532,736.2637362637362,,0,-1,1768785838.8545532
1768785838862.3655,854.9450549450548,,0,-1,1768785838.8623655
1768785838870.1782,958.241758241758,,0,-1,1768785838.8701782
1768785838877.9907,1049.084249084249,,0,-1,1768785838.8779907
1768785838885.8032,1131.135531135531,,0,-1,1768785838.8858032
1768785838893.6155,1205.128205128205,,0,-1,1768785838.8936155
1768785838901.4282,1263.003663003663,,0,-1,1768785838.9014282
1768785838909.2407,1315.018315018315,,0,-1,1768785838.9092407
1768785838917.0532,1351.6483516483515,,0,-1,1768785838.9170532
1768785838924.8655,1380.2197802197802,,0,-1,1768785838.9248655
1768785838932.6782,1400.7326007326003,,0,-1,1768785838.9326782
1768785838940.4907,1412.4542124542124,,0,-1,1768785838.9404907
1768785838948.3032,1417.5824175824175,,0,-1,1768785838.9483032
1768785838956.1155,1418.3150183150185,,0,-1,1768785838.9561155
1768785838963.9282,1416.117216117216,,0,-1,1768785838.9639282
1768785838971.7407,1410.2564102564102,,0,-1,1768785838.9717407
1768785838979.5532,1405.128205128205,,0,-1,1768785838.9795532
1768785838987.3655,1403.6630036630036,,0,-1,1768785838.9873655
1768785838995.1782,1399.2673992673992,,0,-1,1768785838.9951782
1768785839002.9907,1391.2087912087911,,0,-1,1768785839.0029907
1768785839010.8032,1381.6849816849815,,0,-1,1768785839.0108032
1768785839018.6155,1376.5567765567764,,0,-1,1768785839.0186155
1768785839026.4282,1375.091575091575,,0,-1,1768785839.0264282
1768785839034.2407,1377.2893772893772,,0,-1,1768785839.0342407
1768785839042.0532,1380.2197802197802,,0,-1,1768785839.0420532
1768785839049.8655,1378.7545787545787,,0,-1,1768785839.0498655
1768785839057.6782,1380.2197802197802,,0,-1,1768785839.0576782
1768785839065.4907,1386.080586080586,,0,-1,1768785839.0654907
1768785839073.3032,1388.278388278388,,0,-1,1768785839.0733032
1768785839081.1155,1390.4761904761904,,0,-1,1768785839.0811155
1768785839088.9282,1394.8717948717947,,0,-1,1768785839.0889282
1768785839096.7407,1400.0,,0,-1,1768785839.0967407
1768785839104.5532,1400.0,,0,-1,1768785839.1045532
1768785839112.3655,1400.7326007326003,,0,-1,1768785839.1123655
1768785839120.1782,1396.3369963369962,,0,-1,1768785839.1201782
1768785839127.9907,1392.6739926739926,,0,-1,1768785839.1279907
1768785839135.8032,1391.941391941392,,0,-1,1768785839.1358032
1768785839143.6155,1386.8131868131868,,0,-1,1768785839.1436155
1768785839151.4282,1383.150183150183,,0,-1,1768785839.1514282
1768785839159.2407,1380.952380952381,,0,-1,1768785839.1592407
1768785839167.0532,1374.3589743589744,,0,-1,1768785839.1670532
1768785839174.8655,1373.6263736263736,,0,-1,1768785839.1748655
1768785839182.6782,1373.6263736263736,,0,-1,1768785839.1826782
1768785839190.4907,1369.230769230769,,0,-1,1768785839.1904907
1768785839198.3032,1372.161172161172,,0,-1,1768785839.1983032
1768785839206.1155,1371.428571428571,,0,-1,1768785839.2061155
1768785839213.9282,1372.8937728937728,,0,-1,1768785839.2139282
1768785839221.7407,1376.5567765567764,,0,-1,1768785839.2217407
1768785839229.5532,1376.5567765567764,,0,-1,1768785839.2295532
1768785839237.3655,1380.2197802197802,,0,-1,1768785839.2373655
1768785839245.1782,1380.2197802197802,,0,-1,1768785839.2451782
1768785839252.9907,1375.8241758241757,,0,-1,1768785839.2529907
1768785839260.8032,1372.161172161172,,0,-1,1768785839.2608032
1768785839268.6155,1366.3003663003662,,0,-1,1768785839.2686155
1768785839276.4282,1364.102564102564,,0,-1,1768785839.2764282
1768785839284.2407,1358.974358974359,,0,-1,1768785839.2842407
1768785839292.0532,1360.4395604395604,,0,-1,1768785839.2920532
1768785839299.8655,1361.1721611721612,,0,-1,1768785839.2998655
1768785839307.6782,1359.7069597069597,,0,-1,1768785839.3076782
1768785839315.4907,1362.6373626373625,,0,-1,1768785839.3154907
1768785839323.3032,1368.4981684981683,,0,-1,1768785839.3233032
1768785839331.1155,1367.7655677655678,,0,-1,1768785839.3311155
1768785839338.9282,1365.5677655677655,,0,-1,1768785839.3389282
1768785839346.7407,1359.7069597069597,,0,-1,1768785839.3467407
1768785839354.5532,1350.9157509157508,,0,-1,1768785839.3545532
1768785839362.3655,1345.7875457875457,,0,-1,1768785839.3623655
1768785839370.1782,1342.857142857143,,0,-1,1768785839.3701782
1768785839377.9907,1338.4615384615383,,0,-1,1768785839.3779907
1768785839385.8032,1343.5897435897434,,0,-1,1768785839.3858032
1768785839393.6155,1349.4505494505493,,0,-1,1768785839.3936155
1768785839401.4282,1351.6483516483515,,0,-1,1768785839.4014282
1768785839409.2407,1356.043956043956,,0,-1,1768785839.4092407
1768785839417.0532,1359.7069597069597,,0,-1,1768785839.4170532
1768785839424.8655,1360.4395604395604,,0,-1,1768785839.4248655
1768785839432.6782,1364.8351648351647,,0,-1,1768785839.4326782
1768785839440.4907,1363.3699633699632,,0,-1,1768785839.4404907
1768785839448.3032,1363.3699633699632,,0,-1,1768785839.4483032
1768785839456.1155,1355.311355311355,,0,-1,1768785839.4561155
1768785839463.9282,1349.4505494505493,,0,-1,1768785839.4639282
1768785839471.7407,1339.194139194139,,0,-1,1768785839.4717407
1768785839479.5532,1328.937728937729,,0,-1,1768785839.4795532
1768785839487.3655,1323.076923076923,,0,-1,1768785839.4873655
1768785839495.1782,1314.2857142857142,,0,-1,1768785839.4951782
1768785839502.9907,1310.6227106227104,,0,-1,1768785839.5029907
1768785839510.8032,1306.9597069597069,,0,-1,1768785839.5108032
1768785839518.6155,1306.227106227106,,0,-1,1768785839.5186155
1768785839526.4282,1309.1575091575091,,0,-1,1768785839.5264282
1768785839534.2407,1315.018315018315,,0,-1,1768785839.5342407
1768785839542.0532,1326.739926739927,,0,-1,1768785839.5420532
1768785839549.8655,1333.3333333333333,,0,-1,1768785839.5498655
1768785839557.6782,1342.124542124542,,0,-1,1768785839.5576782
1768785839565.4907,1342.124542124542,,0,-1,1768785839.5654907
1768785839573.3032,1342.857142857143,,0,-1,1768785839.5733032
1768785839581.1155,1343.5897435897434,,0,-1,1768785839.5811155
1768785839588.9282,1339.92673992674,,0,-1,1768785839.5889282
1768785839596.7407,1342.124542124542,,0,-1,1768785839.5967407
1768785839604.5532,1342.857142857143,,0,-1,1768785839.6045532
1768785839612.3655,1342.857142857143,,0,-1,1768785839.6123655
1768785839620.1782,1345.7875457875457,,0,-1,1768785839.6201782
1768785839627.9907,1342.857142857143,,0,-1,1768785839.6279907
1768785839635.8032,1341.3919413919414,,0,-1,1768785839.6358032
1768785839643.6155,1334.7985347985348,,0,-1,1768785839.6436155
1768785839651.4282,1333.3333333333333,,0,-1,1768785839.6514282
1768785839659.2407,1326.739926739927,,0,-1,1768785839.6592407
1768785839667.0532,1325.2747252747251,,0,-1,1768785839.6670532
1768785839674.8655,1320.14652014652,,0,-1,1768785839.6748655
1768785839682.6782,1317.9487179487178,,0,-1,1768785839.6826782
1768785839690.4907,1314.2857142857142,,0,-1,1768785839.6904907
1768785839698.3032,1317.9487179487178,,0,-1,1768785839.6983032
1768785839706.1155,1316.4835164835165,,0,-1,1768785839.7061155
1768785839713.9282,1322.3443223443223,,0,-1,1768785839.7139282
1768785839721.7407,1327.4725274725274,,0,-1,1768785839.7217407
1768785839729.5532,1335.5311355311355,,0,-1,1768785839.7295532
1768785839737.3655,1347.985347985348,,0,-1,1768785839.7373655
1768785839745.1782,1359.7069597069597,,0,-1,1768785839.7451782
1768785839752.9907,1371.428571428571,,0,-1,1768785839.7529907
1768785839760.8032,1384.6153846153843,,0,-1,1768785839.7608032
1768785839768.6155,1395.6043956043954,,0,-1,1768785839.7686155
1768785839776.4282,1404.3956043956043,,0,-1,1768785839.7764282
1768785839784.2407,1414.6520146520145,,0,-1,1768785839.7842407
1768785839792.0532,1420.5128205128203,,0,-1,1768785839.7920532
1768785839799.8655,1416.8498168498168,,0,-1,1768785839.7998655
1768785839807.6782,1413.9194139194135,,0,-1,1768785839.8076782
1768785839815.4907,1421.245421245421,,0,-1,1768785839.8154907
1768785839823.3032,1427.8388278388277,,0,-1,1768785839.8233032
1768785839831.1155,1436.6300366300366,,0,-1,1768785839.8311155
1768785839838.9282,1448.3516483516482,,0,-1,1768785839.8389282
1768785839846.7407,1456.4102564102564,,0,-1,1768785839.8467407
1768785839854.5532,1466.6666666666663,,0,-1,1768785839.8545532
1768785839862.3655,1476.190476190476,,0,-1,1768785839.8623655
1768785839870.1782,1479.120879120879,,0,-1,1768785839.8701782
1768785839877.9907,1483.5164835164835,,0,-1,1768785839.8779907
1768785839885.8032,1485.7142857142856,,0,-1,1768785839.8858032
1768785839893.6155,1491.5750915750914,,0,-1,1768785839.8936155
1768785839901.4282,1498.168498168498,,0,-1,1768785839.9014282
1768785839909.2407,1502.5641025641023,,0,-1,1768785839.9092407
1768785839917.0532,1507.6923076923076,,0,-1,1768785839.9170532
1768785839924.8655,1509.1575091575091,,0,-1,1768785839.9248655
1768785839932.6782,1516.4835164835165,,0,-1,1768785839.9326782
1768785839940.4907,1517.9487179487178,,0,-1,1768785839.9404907
1768785839948.3032,1515.018315018315,,0,-1,1768785839.9483032
1768785839956.1155,1512.087912087912,,0,-1,1768785839.9561155
1768785839963.9282,1503.2967032967033,,0,-1,1768785839.9639282
1768785839971.7407,1498.168498168498,,0,-1,1768785839.9717407
1768785839979.5532,1488.6446886446886,,0,-1,1768785839.9795532
1768785839987.3655,1480.5860805860805,,0,-1,1768785839.9873655
1768785839995.1782,1465.9340659340658,,0,-1,1768785839.9951782
1768785840002.9907,1455.6776556776556,,0,-1,1768785840.0029907
1768785840010.8032,1446.153846153846,,0,-1,1768785840.0108032
1768785840018.6155,1445.4212454212454,,0,-1,1768785840.0186155
1768785840026.4282,1442.4908424908424,,0,-1,1768785840.0264282
1768785840034.2407,1438.8278388278388,,0,-1,1768785840.0342407
1768785840042.0532,1441.7582417582416,,0,-1,1768785840.0420532
1768785840049.8655,1443.956043956044,,0,-1,1768785840.0498655
1768785840057.6782,1445.4212454212454,,0,-1,1768785840.0576782
1768785840065.4907,1443.2234432234432,,0,-1,1768785840.0654907
1768785840073.3032,1437.362637362637,,0,-1,1768785840.0733032
1768785840081.1155,1435.8974358974358,,0,-1,1768785840.0811155
1768785840088.9282,1431.5018315018317,,0,-1,1768785840.0889282
1768785840096.7407,1432.9670329670328,,0,-1,1768785840.0967407
1768785840104.5532,1431.5018315018317,,0,-1,1768785840.1045532
1768785840112.3655,1434.4322344322345,,0,-1,1768785840.1123655
1768785840120.1782,1433.6996336996335,,0,-1,1768785840.1201782
1768785840127.9907,1441.7582417582416,,0,-1,1768785840.1279907
1768785840135.8032,1443.956043956044,,0,-1,1768785840.1358032
1768785840143.6155,1449.084249084249,,0,-1,1768785840.1436155
1768785840151.4282,1446.8864468864467,,0,-1,1768785840.1514282
1768785840159.2407,1443.2234432234432,,0,-1,1768785840.1592407
1768785840167.0532,1442.4908424908424,,0,-1,1768785840.1670532
1768785840174.8655,1436.6300366300366,,0,-1,1768785840.1748655
1768785840182.6782,1432.9670329670328,,0,-1,1768785840.1826782
1768785840190.4907,1424.9084249084249,,0,-1,1768785840.1904907
1768785840198.3032,1424.9084249084249,,0,-1,1768785840.1983032
1768785840206.1155,1421.245421245421,,0,-1,1768785840.2061155
1768785840213.9282,1416.117216117216,,0,-1,1768785840.2139282
1768785840221.7407,1411.7216117216117,,0,-1,1768785840.2217407
1768785840229.5532,1404.3956043956043,,0,-1,1768785840.2295532
1768785840237.3655,1394.8717948717947,,0,-1,1768785840.2373655
1768785840245.1782,1387.5457875457876,,0,-1,1768785840.2451782
1768785840252.9907,1380.2197802197802,,0,-1,1768785840.2529907
1768785840260.8032,1378.7545787545787,,0,-1,1768785840.2608032
1768785840268.6155,1378.021978021978,,0,-1,1768785840.2686155
1768785840276.4282,1380.2197802197802,,0,-1,1768785840.2764282
1768785840284.2407,1385.3479853479853,,0,-1,1768785840.2842407
1768785840292.0532,1393.4065934065934,,0,-1,1768785840.2920532
1768785840299.8655,1396.3369963369962,,0,-1,1768785840.2998655
1768785840307.6782,1400.7326007326003,,0,-1,1768785840.3076782
1768785840315.4907,1397.069597069597,,0,-1,1768785840.3154907
1768785840323.3032,1401.4652014652013,,0,-1,1768785840.3233032
1768785840331.1155,1402.9304029304028,,0,-1,1768785840.3311155
1768785840338.9282,1407.3260073260071,,0,-1,1768785840.3389282
1768785840346.7407,1410.2564102564102,,0,-1,1768785840.3467407
1768785840354.5532,1408.7912087912086,,0,-1,1768785840.3545532
1768785840362.3655,1412.4542124542124,,0,-1,1768785840.3623655
1768785840370.1782,1412.4542124542124,,0,-1,1768785840.3701782
1768785840377.9907,1411.7216117216117,,0,-1,1768785840.3779907
1768785840385.8032,1407.3260073260071,,0,-1,1768785840.3858032
1768785840393.6155,1404.3956043956043,,0,-1,1768785840.3936155
1768785840401.4282,1406.5934065934066,,0,-1,1768785840.4014282
1768785840409.2407,1401.4652014652013,,0,-1,1768785840.4092407
1768785840417.0532,1394.139194139194,,1,1,1768785840.4170532
1768785840424.8655,1390.4761904761904,,1,1,1768785840.4248655
1768785840432.6782,1383.8827838827838,,1,1,1768785840.4326782
1768785840440.4907,1378.7545787545787,,1,1,1768785840.4404907
1768785840448.3032,1373.6263736263736,,1,1,1768785840.4483032
1768785840456.1155,1374.3589743589744,,1,1,1768785840.4561155
1768785840463.9282,1376.5567765567764,,1,1,1768785840.4639282
1768785840471.7407,1375.091575091575,,1,1,1768785840.4717407
1768785840479.5532,1375.8241758241757,,1,1,1768785840.4795532
1768785840487.3655,1375.8241758241757,,1,1,1768785840.4873655
1768785840495.1782,1371.428571428571,,1,1,1768785840.4951782
1768785840502.9907,1371.428571428571,,1,1,1768785840.5029907
1768785840510.8032,1367.7655677655678,,1,1,1768785840.5108032
1768785840518.6155,1358.974358974359,,1,1,1768785840.5186155
1768785840526.4282,1355.311355311355,,1,1,1768785840.5264282
1768785840534.2407,1355.311355311355,,1,1,1768785840.5342407
1768785840542.0532,1356.7765567765566,,1,1,1768785840.5420532
1768785840549.8655,1365.5677655677655,,1,1,1768785840.5498655
1768785840557.6782,1370.6959706959706,,1,1,1768785840.5576782
1768785840565.4907,1375.091575091575,,1,1,1768785840.5654907
1768785840573.3032,1378.7545787545787,,1,1,1768785840.5733032
1768785840581.1155,1379.4871794871794,,1,1,1768785840.5811155
1768785840588.9282,1376.5567765567764,,1,1,1768785840.5889282
1768785840596.7407,1375.091575091575,,1,1,1768785840.5967407
1768785840604.5532,1378.021978021978,,1,1,1768785840.6045532
1768785840612.3655,1379.4871794871794,,1,1,1768785840.6123655
1768785840620.1782,1384.6153846153843,,1,1,1768785840.6201782
1768785840627.9907,1397.8021978021975,,1,1,1768785840.6279907
1768785840635.8032,1408.7912087912086,,1,1,1768785840.6358032
1768785840643.6155,1424.175824175824,,1,1,1768785840.6436155
1768785840651.4282,1439.5604395604394,,1,1,1768785840.6514282
1768785840659.2407,1450.5494505494505,,1,1,1768785840.6592407
1768785840667.0532,1464.4688644688645,,1,1,1768785840.6670532
1768785840674.8655,1473.260073260073,,1,1,1768785840.6748655
1768785840682.6782,1484.2490842490845,,1,1,1768785840.6826782
1768785840690.4907,1494.5054945054944,,1,1,1768785840.6904907
1768785840698.3032,1500.3663003663005,,1,1,1768785840.6983032
1768785840706.1155,1508.4249084249084,,1,1,1768785840.7061155
1768785840713.9282,1508.4249084249084,,1,1,1768785840.7139282
1768785840721.7407,1512.087912087912,,1,1,1768785840.7217407
1768785840729.5532,1509.89010989011,,1,1,1768785840.7295532
1768785840737.3655,1505.4945054945051,,1,1,1768785840.7373655
1768785840745.1782,1504.0293040293038,,1,1,1768785840.7451782
1768785840752.9907,1498.9010989010987,,1,1,1768785840.7529907
1768785840760.8032,1498.168498168498,,1,1,1768785840.7608032
1768785840768.6155,1500.3663003663005,,1,1,1768785840.7686155
1768785840776.4282,1503.2967032967033,,1,1,1768785840.7764282
1768785840784.2407,1504.7619047619046,,1,1,1768785840.7842407
1768785840792.0532,1505.4945054945051,,1,1,1768785840.7920532
1768785840799.8655,1502.5641025641023,,1,1,1768785840.7998655
1768785840807.6782,1506.227106227106,,1,1,1768785840.8076782
1768785840815.4907,1505.4945054945051,,1,1,1768785840.8154907
1768785840823.3032,1506.9597069597069,,1,1,1768785840.8233032
1768785840831.1155,1506.9597069597069,,1,1,1768785840.8311155
1768785840838.9282,1501.8315018315018,,1,1,1768785840.8389282
1768785840846.7407,1491.5750915750914,,1,1,1768785840.8467407
1768785840854.5532,1481.3186813186812,,1,1,1768785840.8545532
1768785840862.3655,1469.5970695970695,,1,1,1768785840.8623655
1768785840870.1782,1454.212454212454,,1,1,1768785840.8701782
1768785840877.9907,1443.956043956044,,1,1,1768785840.8779907
1768785840885.8032,1429.3040293040292,,1,1,1768785840.8858032
1768785840893.6155,1418.3150183150185,,1,1,1768785840.8936155
1768785840901.4282,1417.5824175824175,,1,1,1768785840.9014282
1768785840909.2407,1421.9780219780218,,1,1,1768785840.9092407
1768785840917.0532,1422.7106227106226,,1,1,1768785840.9170532
1768785840924.8655,1424.175824175824,,1,1,1768785840.9248655
1768785840932.6782,1427.8388278388277,,1,1,1768785840.9326782
1768785840940.4907,1428.5714285714284,,1,1,1768785840.9404907
1768785840948.3032,1431.5018315018317,,1,1,1768785840.9483032
1768785840956.1155,1427.106227106227,,1,1,1768785840.9561155
1768785840963.9282,1419.047619047619,,1,1,1768785840.9639282
1768785840971.7407,1419.047619047619,,1,1,1768785840.9717407
1768785840979.5532,1421.245421245421,,1,1,1768785840.9795532
1768785840987.3655,1424.9084249084249,,1,1,1768785840.9873655
1768785840995.1782,1429.3040293040292,,1,1,1768785840.9951782
1768785841002.9907,1436.6300366300366,,1,1,1768785841.0029907
1768785841010.8032,1443.956043956044,,1,1,1768785841.0108032
1768785841018.6155,1450.5494505494505,,1,1,1768785841.0186155
1768785841026.4282,1459.3406593406592,,1,1,1768785841.0264282
1768785841034.2407,1460.07326007326,,1,1,1768785841.0342407
1768785841042.0532,1452.7472527472526,,1,1,1768785841.0420532
1768785841049.8655,1449.084249084249,,1,1,1768785841.0498655
1768785841057.6782,1443.2234432234432,,1,1,1768785841.0576782
1768785841065.4907,1435.164835164835,,1,1,1768785841.0654907
1768785841073.3032,1428.5714285714284,,1,1,1768785841.0733032
1768785841081.1155,1422.7106227106226,,1,1,1768785841.0811155
1768785841088.9282,1412.4542124542124,,1,1,1768785841.0889282
1768785841096.7407,1406.5934065934066,,1,1,1768785841.0967407
1768785841104.5532,1402.197802197802,,1,1,1768785841.1045532
1768785841112.3655,1391.941391941392,,1,1,1768785841.1123655
1768785841120.1782,1382.4175824175825,,1,1,1768785841.1201782
1768785841127.9907,1376.5567765567764,,1,1,1768785841.1279907
1768785841135.8032,1370.6959706959706,,1,1,1768785841.1358032
1768785841143.6155,1363.3699633699632,,1,1,1768785841.1436155
1768785841151.4282,1364.102564102564,,1,1,1768785841.1514282
1768785841159.2407,1369.230769230769,,1,1,1768785841.1592407
1768785841167.0532,1375.8241758241757,,1,1,1768785841.1670532
1768785841174.8655,1378.7545787545787,,1,1,1768785841.1748655
1768785841182.6782,1382.4175824175825,,1,1,1768785841.1826782
1768785841190.4907,1384.6153846153843,,1,1,1768785841.1904907
1768785841198.3032,1387.5457875457876,,1,1,1768785841.1983032
1768785841206.1155,1394.8717948717947,,1,1,1768785841.2061155
1768785841213.9282,1394.8717948717947,,1,1,1768785841.2139282
1768785841221.7407,1398.5347985347985,,1,1,1768785841.2217407
1768785841229.5532,1397.8021978021975,,1,1,1768785841.2295532
1768785841237.3655,1394.139194139194,,1,1,1768785841.2373655
1768785841245.1782,1395.6043956043954,,1,1,1768785841.2451782
1768785841252.9907,1392.6739926739926,,1,1,1768785841.2529907
1768785841260.8032,1389.7435897435896,,1,1,1768785841.2608032
1768785841268.6155,1390.4761904761904,,1,1,1768785841.2686155
1768785841276.4282,1386.080586080586,,1,1,1768785841.2764282
1768785841284.2407,1386.080586080586,,1,1,1768785841.2842407
1768785841292.0532,1380.2197802197802,,1,1,1768785841.2920532
1768785841299.8655,1373.6263736263736,,1,1,1768785841.2998655
1768785841307.6782,1372.161172161172,,1,1,1768785841.3076782
1768785841315.4907,1368.4981684981683,,1,1,1768785841.3154907
1768785841323.3032,1370.6959706959706,,1,1,1768785841.3233032
1768785841331.1155,1372.8937728937728,,1,1,1768785841.3311155
1768785841338.9282,1374.3589743589744,,1,1,1768785841.3389282
1768785841346.7407,1372.161172161172,,1,1,1768785841.3467407
1768785841354.5532,1372.161172161172,,1,1,1768785841.3545532
1768785841362.3655,1367.032967032967,,1,1,1768785841.3623655
1768785841370.1782,1358.974358974359,,1,1,1768785841.3701782
1768785841377.9907,1357.5091575091574,,1,1,1768785841.3779907
1768785841385.8032,1356.7765567765566,,1,1,1768785841.3858032
1768785841393.6155,1354.5787545787546,,1,1,1768785841.3936155
1768785841401.4282,1357.5091575091574,,1,1,1768785841.4014282
1768785841409.2407,1359.7069597069597,,1,1,1768785841.4092407
1768785841417.0532,1365.5677655677655,,1,1,1768785841.4170532
1768785841424.8655,1362.6373626373625,,1,1,1768785841.4248655
1768785841432.6782,1358.241758241758,,1,1,1768785841.4326782
1768785841440.4907,1358.241758241758,,1,1,1768785841.4404907
1768785841448.3032,1356.043956043956,,1,1,1768785841.4483032
1768785841456.1155,1356.7765567765566,,1,1,1768785841.4561155
1768785841463.9282,1360.4395604395604,,1,1,1768785841.4639282
1768785841471.7407,1365.5677655677655,,1,1,1768785841.4717407
1768785841479.5532,1376.5567765567764,,1,1,1768785841.4795532
1768785841487.3655,1391.941391941392,,1,1,1768785841.4873655
1768785841495.1782,1403.6630036630036,,1,1,1768785841.4951782
1768785841502.9907,1421.9780219780218,,1,1,1768785841.5029907
1768785841510.8032,1440.29304029304,,1,1,1768785841.5108032
1768785841518.6155,1449.8168498168498,,1,1,1768785841.5186155
1768785841526.4282,1457.142857142857,,1,1,1768785841.5264282
1768785841534.2407,1467.3992673992673,,1,1,1768785841.5342407
1768785841542.0532,1476.923076923077,,1,1,1768785841.5420532
1768785841549.8655,1483.5164835164835,,1,1,1768785841.5498655
1768785841557.6782,1490.8424908424906,,1,1,1768785841.5576782
1768785841565.4907,1496.7032967032967,,1,1,1768785841.5654907
1768785841573.3032,1502.5641025641023,,1,1,1768785841.5733032
1768785841581.1155,1500.3663003663005,,1,1,1768785841.5811155
1768785841588.9282,1501.098901098901,,1,1,1768785841.5889282
1768785841596.7407,1501.8315018315018,,1,1,1768785841.5967407
1768785841604.5532,1496.7032967032967,,1,1,1768785841.6045532
1768785841612.3655,1489.3772893772891,,1,1,1768785841.6123655
1768785841620.1782,1484.9816849816848,,1,1,1768785841.6201782
1768785841627.9907,1480.5860805860805,,1,1,1768785841.6279907
1768785841635.8032,1475.4578754578754,,1,1,1768785841.6358032
1768785841643.6155,1471.062271062271,,1,1,1768785841.6436155
1768785841651.4282,1473.992673992674,,1,1,1768785841.6514282
1768785841659.2407,1476.923076923077,,1,1,1768785841.6592407
1768785841667.0532,1479.8534798534797,,1,1,1768785841.6670532
1768785841674.8655,1479.8534798534797,,1,1,1768785841.6748655
1768785841682.6782,1480.5860805860805,,1,1,1768785841.6826782
1768785841690.4907,1476.190476190476,,1,1,1768785841.6904907
1768785841698.3032,1466.6666666666663,,1,1,1768785841.6983032
1768785841706.1155,1453.479853479853,,1,1,1768785841.7061155
1768785841713.9282,1443.2234432234432,,1,1,1768785841.7139282
1768785841721.7407,1435.164835164835,,1,1,1768785841.7217407
1768785841729.5532,1427.106227106227,,1,1,1768785841.7295532
1768785841737.3655,1421.9780219780218,,1,1,1768785841.7373655
1768785841745.1782,1414.6520146520145,,1,1,1768785841.7451782
1768785841752.9907,1410.989010989011,,1,1,1768785841.7529907
1768785841760.8032,1413.9194139194135,,1,1,1768785841.7608032
1768785841768.6155,1419.047619047619,,1,1,1768785841.7686155
1768785841776.4282,1425.6410256410256,,1,1,1768785841.7764282
1768785841784.2407,1433.6996336996335,,1,1,1768785841.7842407
1768785841792.0532,1442.4908424908424,,1,1,1768785841.7920532
1768785841799.8655,1443.956043956044,,1,1,1768785841.7998655
1768785841807.6782,1445.4212454212454,,1,1,1768785841.8076782
1768785841815.4907,1442.4908424908424,,1,1,1768785841.8154907
1768785841823.3032,1435.164835164835,,1,1,1768785841.8233032
1768785841831.1155,1427.8388278388277,,1,1,1768785841.8311155
1768785841838.9282,1424.175824175824,,1,1,1768785841.8389282
1768785841846.7407,1419.7802197802198,,1,1,1768785841.8467407
1768785841854.5532,1413.1868131868132,,1,1,1768785841.8545532
1768785841862.3655,1412.4542124542124,,1,1,1768785841.8623655
1768785841870.1782,1415.3846153846152,,1,1,1768785841.8701782
1768785841877.9907,1416.8498168498168,,1,1,1768785841.8779907
1768785841885.8032,1416.8498168498168,,1,1,1768785841.8858032
1768785841893.6155,1423.4432234432234,,1,1,1768785841.8936155
1768785841901.4282,1427.8388278388277,,1,1,1768785841.9014282
1768785841909.2407,1425.6410256410256,,1,1,1768785841.9092407
1768785841917.0532,1421.245421245421,,1,1,1768785841.9170532
1768785841924.8655,1421.245421245421,,1,1,1768785841.9248655
1768785841932.6782,1419.047619047619,,1,1,1768785841.9326782
1768785841940.4907,1414.6520146520145,,0,-1,1768785841.9404907
1768785841948.3032,1414.6520146520145,,0,-1,1768785841.9483032
1768785841956.1155,1416.8498168498168,,0,-1,1768785841.9561155
1768785841963.9282,1414.6520146520145,,0,-1,1768785841.9639282
1768785841971.7407,1412.4542124542124,,0,-1,1768785841.9717407
1768785841979.5532,1411.7216117216117,,0,-1,1768785841.9795532
1768785841987.3655,1405.128205128205,,0,-1,1768785841.9873655
1768785841995.1782,1390.4761904761904,,0,-1,1768785841.9951782
1768785842002.9907,1376.5567765567764,,0,-1,1768785842.0029907
1768785842010.8032,1372.161172161172,,0,-1,1768785842.0108032
1768785842018.6155,1373.6263736263736,,0,-1,1768785842.0186155
1768785842026.4282,1376.5567765567764,,0,-1,1768785842.0264282
1768785842034.2407,1378.021978021978,,0,-1,1768785842.0342407
1768785842042.0532,1381.6849816849815,,0,-1,1768785842.0420532
1768785842049.8655,1383.8827838827838,,0,-1,1768785842.0498655
1768785842057.6782,1385.3479853479853,,0,-1,1768785842.0576782
1768785842065.4907,1385.3479853479853,,0,-1,1768785842.0654907
1768785842073.3032,1384.6153846153843,,0,-1,1768785842.0733032
1768785842081.1155,1381.6849816849815,,0,-1,1768785842.0811155
1768785842088.9282,1378.7545787545787,,0,-1,1768785842.0889282
1768785842096.7407,1378.021978021978,,0,-1,1768785842.0967407
1768785842104.5532,1377.2893772893772,,0,-1,1768785842.1045532
1768785842112.3655,1374.3589743589744,,0,-1,1768785842.1123655
1768785842120.1782,1374.3589743589744,,0,-1,1768785842.1201782
1768785842127.9907,1371.428571428571,,0,-1,1768785842.1279907
1768785842135.8032,1372.161172161172,,0,-1,1768785842.1358032
1768785842143.6155,1374.3589743589744,,0,-1,1768785842.1436155
1768785842151.4282,1373.6263736263736,,0,-1,1768785842.1514282
1768785842159.2407,1372.161172161172,,0,-1,1768785842.1592407
1768785842167.0532,1372.8937728937728,,0,-1,1768785842.1670532
1768785842174.8655,1372.8937728937728,,0,-1,1768785842.1748655
1768785842182.6782,1372.161172161172,,0,-1,1768785842.1826782
1768785842190.4907,1370.6959706959706,,0,-1,1768785842.1904907
1768785842198.3032,1372.8937728937728,,0,-1,1768785842.1983032
1768785842206.1155,1377.2893772893772,,0,-1,1768785842.2061155
1768785842213.9282,1379.4871794871794,,0,-1,1768785842.2139282
1768785842221.7407,1380.2197802197802,,0,-1,1768785842.2217407
1768785842229.5532,1378.7545787545787,,0,-1,1768785842.2295532
1768785842237.3655,1375.091575091575,,0,-1,1768785842.2373655
1768785842245.1782,1371.428571428571,,0,-1,1768785842.2451782
1768785842252.9907,1365.5677655677655,,0,-1,1768785842.2529907
1768785842260.8032,1364.102564102564,,0,-1,1768785842.2608032
1768785842268.6155,1366.3003663003662,,0,-1,1768785842.2686155
1768785842276.4282,1371.428571428571,,0,-1,1768785842.2764282
1768785842284.2407,1378.7545787545787,,0,-1,1768785842.2842407
1768785842292.0532,1389.7435897435896,,0,-1,1768785842.2920532
1768785842299.8655,1405.128205128205,,0,-1,1768785842.2998655
1768785842307.6782,1422.7106227106226,,0,-1,1768785842.3076782
1768785842315.4907,1441.7582417582416,,0,-1,1768785842.3154907
1768785842323.3032,1458.6080586080584,,0,-1,1768785842.3233032
1768785842331.1155,1471.7948717948716,,0,-1,1768785842.3311155
1768785842338.9282,1482.051282051282,,0,-1,1768785842.3389282
1768785842346.7407,1489.3772893772891,,0,-1,1768785842.3467407
1768785842354.5532,1494.5054945054944,,0,-1,1768785842.3545532
1768785842362.3655,1501.8315018315018,,0,-1,1768785842.3623655
1768785842370.1782,1506.9597069597069,,0,-1,1768785842.3701782
1768785842377.9907,1514.2857142857142,,0,-1,1768785842.3779907
1768785842385.8032,1521.6117216117216,,0,-1,1768785842.3858032
1768785842393.6155,1525.2747252747251,,0,-1,1768785842.3936155
1768785842401.4282,1524.5421245421244,,0,-1,1768785842.4014282
1768785842409.2407,1522.3443223443223,,0,-1,1768785842.4092407
1768785842417.0532,1518.6813186813183,,0,-1,1768785842.4170532
1768785842424.8655,1515.7509157509155,,0,-1,1768785842.4248655
1768785842432.6782,1514.2857142857142,,0,-1,1768785842.4326782
1768785842440.4907,1509.1575091575091,,0,-1,1768785842.4404907
1768785842448.3032,1500.3663003663005,,0,-1,1768785842.4483032
1768785842456.1155,1490.8424908424906,,0,-1,1768785842.4561155
1768785842463.9282,1483.5164835164835,,0,-1,1768785842.4639282
1768785842471.7407,1477.6556776556777,,0,-1,1768785842.4717407
1768785842479.5532,1475.4578754578754,,0,-1,1768785842.4795532
1768785842487.3655,1476.190476190476,,0,-1,1768785842.4873655
1768785842495.1782,1475.4578754578754,,0,-1,1768785842.4951782
1768785842502.9907,1471.062271062271,,0,-1,1768785842.5029907
1768785842510.8032,1465.9340659340658,,0,-1,1768785842.5108032
1768785842518.6155,1460.07326007326,,0,-1,1768785842.5186155
1768785842526.4282,1454.9450549450548,,0,-1,1768785842.5264282
1768785842534.2407,1449.084249084249,,0,-1,1768785842.5342407
1768785842542.0532,1446.153846153846,,0,-1,1768785842.5420532
1768785842549.8655,1441.7582417582416,,0,-1,1768785842.5498655
1768785842557.6782,1435.8974358974358,,0,-1,1768785842.5576782
1768785842565.4907,1430.7692307692307,,0,-1,1768785842.5654907
1768785842573.3032,1424.9084249084249,,0,-1,1768785842.5733032
1768785842581.1155,1421.245421245421,,0,-1,1768785842.5811155
1768785842588.9282,1417.5824175824175,,0,-1,1768785842.5889282
1768785842596.7407,1417.5824175824175,,0,-1,1768785842.5967407
1768785842604.5532,1418.3150183150185,,0,-1,1768785842.6045532
1768785842612.3655,1418.3150183150185,,0,-1,1768785842.6123655
1768785842620.1782,1416.8498168498168,,0,-1,1768785842.6201782
1768785842627.9907,1414.6520146520145,,0,-1,1768785842.6279907
1768785842635.8032,1410.989010989011,,0,-1,1768785842.6358032
1768785842643.6155,1408.7912087912086,,0,-1,1768785842.6436155
1768785842651.4282,1405.8608058608058,,0,-1,1768785842.6514282
1768785842659.2407,1402.9304029304028,,0,-1,1768785842.6592407
1768785842667.0532,1399.2673992673992,,0,-1,1768785842.6670532
1768785842674.8655,1396.3369963369962,,0,-1,1768785842.6748655
1768785842682.6782,1396.3369963369962,,0,-1,1768785842.6826782
1768785842690.4907,1399.2673992673992,,0,-1,1768785842.6904907
1768785842698.3032,1403.6630036630036,,0,-1,1768785842.6983032
1768785842706.1155,1408.7912087912086,,0,-1,1768785842.7061155
1768785842713.9282,1412.4542124542124,,0,-1,1768785842.7139282
1768785842721.7407,1413.9194139194135,,0,-1,1768785842.7217407
1768785842729.5532,1416.8498168498168,,0,-1,1768785842.7295532
1768785842737.3655,1418.3150183150185,,0,-1,1768785842.7373655
1768785842745.1782,1416.8498168498168,,0,-1,1768785842.7451782
1768785842752.9907,1413.1868131868132,,0,-1,1768785842.7529907
1768785842760.8032,1406.5934065934066,,0,-1,1768785842.7608032
1768785842768.6155,1400.0,,0,-1,1768785842.7686155
1768785842776.4282,1393.4065934065934,,0,-1,1768785842.7764282
1768785842784.2407,1388.278388278388,,0,-1,1768785842.7842407
1768785842792.0532,1385.3479853479853,,0,-1,1768785842.7920532
1768785842799.8655,1386.080586080586,,0,-1,1768785842.7998655
1768785842807.6782,1389.0109890109889,,0,-1,1768785842.8076782
1768785842815.4907,1389.7435897435896,,0,-1,1768785842.8154907
1768785842823.3032,1387.5457875457876,,0,-1,1768785842.8233032
1768785842831.1155,1383.8827838827838,,0,-1,1768785842.8311155
1768785842838.9282,1378.021978021978,,0,-1,1768785842.8389282
1768785842846.7407,1370.6959706959706,,0,-1,1768785842.8467407
1768785842854.5532,1365.5677655677655,,0,-1,1768785842.8545532
1768785842862.3655,1361.1721611721612,,0,-1,1768785842.8623655
1768785842870.1782,1357.5091575091574,,0,-1,1768785842.8701782
1768785842877.9907,1356.043956043956,,0,-1,1768785842.8779907
1768785842885.8032,1356.043956043956,,0,-1,1768785842.8858032
1768785842893.6155,1355.311355311355,,0,-1,1768785842.8936155
1768785842901.4282,1352.3809523809523,,0,-1,1768785842.9014282
1768785842909.2407,1350.9157509157508,,0,-1,1768785842.9092407
1768785842917.0532,1353.113553113553,,0,-1,1768785842.9170532
1768785842924.8655,1356.043956043956,,0,-1,1768785842.9248655
1768785842932.6782,1361.1721611721612,,0,-1,1768785842.9326782
1768785842940.4907,1367.032967032967,,0,-1,1768785842.9404907
1768785842948.3032,1374.3589743589744,,0,-1,1768785842.9483032
1768785842956.1155,1380.952380952381,,0,-1,1768785842.9561155
1768785842963.9282,1383.8827838827838,,0,-1,1768785842.9639282
1768785842971.7407,1382.4175824175825,,0,-1,1768785842.9717407
1768785842979.5532,1378.7545787545787,,0,-1,1768785842.9795532
1768785842987.3655,1372.161172161172,,0,-1,1768785842.9873655
1768785842995.1782,1364.102564102564,,0,-1,1768785842.9951782
1768785843002.9907,1355.311355311355,,0,-1,1768785843.0029907
1768785843010.8032,1348.7179487179487,,0,-1,1768785843.0108032
1768785843018.6155,1343.5897435897434,,0,-1,1768785843.0186155
1768785843026.4282,1341.3919413919414,,0,-1,1768785843.0264282
1768785843034.2407,1339.92673992674,,0,-1,1768785843.0342407
1768785843042.0532,1340.6593406593406,,0,-1,1768785843.0420532
1768785843049.8655,1342.857142857143,,0,-1,1768785843.0498655
1768785843057.6782,1345.7875457875457,,0,-1,1768785843.0576782
1768785843065.4907,1350.18315018315,,0,-1,1768785843.0654907
1768785843073.3032,1355.311355311355,,0,-1,1768785843.0733032
1768785843081.1155,1361.904761904762,,0,-1,1768785843.0811155
1768785843088.9282,1367.7655677655678,,0,-1,1768785843.0889282
1768785843096.7407,1376.5567765567764,,0,-1,1768785843.0967407
1768785843104.5532,1389.0109890109889,,0,-1,1768785843.1045532
1768785843112.3655,1405.128205128205,,0,-1,1768785843.1123655
1768785843120.1782,1419.047619047619,,0,-1,1768785843.1201782
1768785843127.9907,1429.3040293040292,,0,-1,1768785843.1279907
1768785843135.8032,1441.0256410256409,,0,-1,1768785843.1358032
1768785843143.6155,1452.014652014652,,0,-1,1768785843.1436155
1768785843151.4282,1463.7362637362637,,0,-1,1768785843.1514282
1768785843159.2407,1474.7252747252746,,0,-1,1768785843.1592407
1768785843167.0532,1491.5750915750914,,0,-1,1768785843.1670532
1768785843174.8655,1502.5641025641023,,0,-1,1768785843.1748655
1768785843182.6782,1512.087912087912,,0,-1,1768785843.1826782
1768785843190.4907,1515.7509157509155,,0,-1,1768785843.1904907
1768785843198.3032,1516.4835164835165,,0,-1,1768785843.1983032
1768785843206.1155,1517.216117216117,,0,-1,1768785843.2061155
1768785843213.9282,1517.216117216117,,0,-1,1768785843.2139282
1768785843221.7407,1517.9487179487178,,0,-1,1768785843.2217407
1768785843229.5532,1519.4139194139193,,0,-1,1768785843.2295532
1768785843237.3655,1522.3443223443223,,0,-1,1768785843.2373655
1768785843245.1782,1523.8095238095236,,0,-1,1768785843.2451782
1768785843252.9907,1525.2747252747251,,0,-1,1768785843.2529907
1768785843260.8032,1520.8791208791208,,0,-1,1768785843.2608032
1768785843268.6155,1517.216117216117,,0,-1,1768785843.2686155
1768785843276.4282,1516.4835164835165,,0,-1,1768785843.2764282
1768785843284.2407,1514.2857142857142,,0,-1,1768785843.2842407
1768785843292.0532,1510.6227106227104,,0,-1,1768785843.2920532
1768785843299.8655,1509.89010989011,,0,-1,1768785843.2998655
1768785843307.6782,1510.6227106227104,,0,-1,1768785843.3076782
1768785843315.4907,1508.4249084249084,,0,-1,1768785843.3154907
1768785843323.3032,1502.5641025641023,,0,-1,1768785843.3233032
1768785843331.1155,1494.5054945054944,,0,-1,1768785843.3311155
1768785843338.9282,1487.179487179487,,0,-1,1768785843.3389282
1768785843346.7407,1480.5860805860805,,0,-1,1768785843.3467407
1768785843354.5532,1474.7252747252746,,0,-1,1768785843.3545532
1768785843362.3655,1472.5274725274724,,0,-1,1768785843.3623655
1768785843370.1782,1470.3296703296703,,0,-1,1768785843.3701782
1768785843377.9907,1470.3296703296703,,0,-1,1768785843.3779907
1768785843385.8032,1470.3296703296703,,0,-1,1768785843.3858032
1768785843393.6155,1468.131868131868,,0,-1,1768785843.3936155
1768785843401.4282,1462.2710622710622,,0,-1,1768785843.4014282
1768785843409.2407,1452.014652014652,,0,-1,1768785843.4092407
1768785843417.0532,1444.688644688645,,0,-1,1768785843.4170532
1768785843424.8655,1436.6300366300366,,0,-1,1768785843.4248655
1768785843432.6782,1431.5018315018317,,0,-1,1768785843.4326782
1768785843440.4907,1430.03663003663,,0,-1,1768785843.4404907
1768785843448.3032,1430.03663003663,,0,-1,1768785843.4483032
1768785843456.1155,1430.03663003663,,0,-1,1768785843.4561155
1768785843463.9282,1430.03663003663,,0,-1,1768785843.4639282
1768785843471.7407,1431.5018315018317,,0,-1,1768785843.4717407
1768785843479.5532,1428.5714285714284,,0,-1,1768785843.4795532
1768785843487.3655,1423.4432234432234,,0,-1,1768785843.4873655
1768785843495.1782,1416.8498168498168,,0,-1,1768785843.4951782
1768785843502.9907,1409.5238095238094,,0,-1,1768785843.5029907
1768785843510.8032,1406.5934065934066,,0,-1,1768785843.5108032
1768785843518.6155,1404.3956043956043,,0,-1,1768785843.5186155
1768785843526.4282,1403.6630036630036,,0,-1,1768785843.5264282
1768785843534.2407,1402.197802197802,,0,-1,1768785843.5342407
1768785843542.0532,1397.8021978021975,,0,-1,1768785843.5420532
1768785843549.8655,1391.941391941392,,0,-1,1768785843.5498655
1768785843557.6782,1388.278388278388,,0,-1,1768785843.5576782
1768785843565.4907,1384.6153846153843,,0,-1,1768785843.5654907
1768785843573.3032,1378.7545787545787,,0,-1,1768785843.5733032
1768785843581.1155,1373.6263736263736,,0,-1,1768785843.5811155
1768785843588.9282,1368.4981684981683,,0,-1,1768785843.5889282
1768785843596.7407,1364.8351648351647,,0,-1,1768785843.5967407
1768785843604.5532,1362.6373626373625,,0,-1,1768785843.6045532
1768785843612.3655,1361.904761904762,,0,-1,1768785843.6123655
1768785843620.1782,1361.904761904762,,0,-1,1768785843.6201782
1768785843627.9907,1364.8351648351647,,0,-1,1768785843.6279907
1768785843635.8032,1368.4981684981683,,0,-1,1768785843.6358032
1768785843643.6155,1372.161172161172,,0,-1,1768785843.6436155
1768785843651.4282,1378.7545787545787,,0,-1,1768785843.6514282
1768785843659.2407,1387.5457875457876,,0,-1,1768785843.6592407
1768785843667.0532,1392.6739926739926,,0,-1,1768785843.6670532
1768785843674.8655,1397.069597069597,,0,-1,1768785843.6748655
1768785843682.6782,1401.4652014652013,,0,-1,1768785843.6826782
1768785843690.4907,1402.9304029304028,,0,-1,1768785843.6904907
1768785843698.3032,1400.7326007326003,,0,-1,1768785843.6983032
1768785843706.1155,1396.3369963369962,,0,-1,1768785843.7061155
1768785843713.9282,1389.0109890109889,,0,-1,1768785843.7139282
1768785843721.7407,1378.7545787545787,,0,-1,1768785843.7217407
1768785843729.5532,1366.3003663003662,,0,-1,1768785843.7295532
1768785843737.3655,1354.5787545787546,,0,-1,1768785843.7373655
1768785843745.1782,1345.054945054945,,0,-1,1768785843.7451782
1768785843752.9907,1339.194139194139,,0,-1,1768785843.7529907
1768785843760.8032,1335.5311355311355,,0,-1,1768785843.7608032
1768785843768.6155,1333.3333333333333,,0,-1,1768785843.7686155
1768785843776.4282,1331.8681318681315,,0,-1,1768785843.7764282
1768785843784.2407,1333.3333333333333,,0,-1,1768785843.7842407
1768785843792.0532,1336.9963369963368,,0,-1,1768785843.7920532
1768785843799.8655,1340.6593406593406,,0,-1,1768785843.7998655
1768785843807.6782,1344.3223443223442,,0,-1,1768785843.8076782
1768785843815.4907,1345.7875457875457,,0,-1,1768785843.8154907
1768785843823.3032,1347.985347985348,,0,-1,1768785843.8233032
1768785843831.1155,1350.18315018315,,0,-1,1768785843.8311155
1768785843838.9282,1352.3809523809523,,0,-1,1768785843.8389282
1768785843846.7407,1351.6483516483515,,0,-1,1768785843.8467407
1768785843854.5532,1346.5201465201465,,0,-1,1768785843.8545532
1768785843862.3655,1339.92673992674,,0,-1,1768785843.8623655
1768785843870.1782,1333.3333333333333,,0,-1,1768785843.8701782
1768785843877.9907,1327.4725274725274,,0,-1,1768785843.8779907
1768785843885.8032,1322.3443223443223,,0,-1,1768785843.8858032
1768785843893.6155,1317.9487179487178,,0,-1,1768785843.8936155
1768785843901.4282,1313.5531135531137,,0,-1,1768785843.9014282
1768785843909.2407,1309.89010989011,,0,-1,1768785843.9092407
1768785843917.0532,1310.6227106227104,,1,2,1768785843.9170532
1768785843924.8655,1312.8205128205127,,1,2,1768785843.9248655
1768785843932.6782,1317.216117216117,,1,2,1768785843.9326782
1768785843940.4907,1325.2747252747251,,1,2,1768785843.9404907
1768785843948.3032,1336.9963369963368,,1,2,1768785843.9483032
1768785843956.1155,1353.113553113553,,1,2,1768785843.9561155
1768785843963.9282,1367.032967032967,,1,2,1768785843.9639282
1768785843971.7407,1384.6153846153843,,1,2,1768785843.9717407
1768785843979.5532,1405.128205128205,,1,2,1768785843.9795532
1768785843987.3655,1421.9780219780218,,1,2,1768785843.9873655
1768785843995.1782,1433.6996336996335,,1,2,1768785843.9951782
1768785844002.9907,1438.8278388278388,,1,2,1768785844.0029907
1768785844010.8032,1441.7582417582416,,1,2,1768785844.0108032
1768785844018.6155,1444.688644688645,,1,2,1768785844.0186155
1768785844026.4282,1452.014652014652,,1,2,1768785844.0264282
1768785844034.2407,1457.875457875458,,1,2,1768785844.0342407
1768785844042.0532,1462.2710622710622,,1,2,1768785844.0420532
1768785844049.8655,1465.201465201465,,1,2,1768785844.0498655
1768785844057.6782,1469.5970695970695,,1,2,1768785844.0576782
1768785844065.4907,1475.4578754578754,,1,2,1768785844.0654907
1768785844073.3032,1479.8534798534797,,1,2,1768785844.0733032
1768785844081.1155,1482.7838827838827,,1,2,1768785844.0811155
1768785844088.9282,1485.7142857142856,,1,2,1768785844.0889282
1768785844096.7407,1488.6446886446886,,1,2,1768785844.0967407
1768785844104.5532,1490.8424908424906,,1,2,1768785844.1045532
1768785844112.3655,1493.7728937728937,,1,2,1768785844.1123655
1768785844120.1782,1494.5054945054944,,1,2,1768785844.1201782
1768785844127.9907,1490.8424908424906,,1,2,1768785844.1279907
1768785844135.8032,1484.2490842490845,,1,2,1768785844.1358032
1768785844143.6155,1478.3882783882782,,1,2,1768785844.1436155
1768785844151.4282,1473.260073260073,,1,2,1768785844.1514282
1768785844159.2407,1468.131868131868,,1,2,1768785844.1592407
1768785844167.0532,1463.003663003663,,1,2,1768785844.1670532
1768785844174.8655,1452.7472527472526,,1,2,1768785844.1748655
1768785844182.6782,1441.0256410256409,,1,2,1768785844.1826782
1768785844190.4907,1428.5714285714284,,1,2,1768785844.1904907
1768785844198.3032,1418.3150183150185,,1,2,1768785844.1983032
1768785844206.1155,1410.989010989011,,1,2,1768785844.2061155
1768785844213.9282,1406.5934065934066,,1,2,1768785844.2139282
1768785844221.7407,1405.8608058608058,,1,2,1768785844.2217407
1768785844229.5532,1405.8608058608058,,1,2,1768785844.2295532
1768785844237.3655,1405.8608058608058,,1,2,1768785844.2373655
1768785844245.1782,1405.8608058608058,,1,2,1768785844.2451782
1768785844252.9907,1407.3260073260071,,1,2,1768785844.2529907
1768785844260.8032,1406.5934065934066,,1,2,1768785844.2608032
1768785844268.6155,1405.8608058608058,,1,2,1768785844.2686155
1768785844276.4282,1404.3956043956043,,1,2,1768785844.2764282
1768785844284.2407,1402.197802197802,,1,2,1768785844.2842407
1768785844292.0532,1399.2673992673992,,1,2,1768785844.2920532
1768785844299.8655,1396.3369963369962,,1,2,1768785844.2998655
1768785844307.6782,1392.6739926739926,,1,2,1768785844.3076782
1768785844315.4907,1389.0109890109889,,1,2,1768785844.3154907
1768785844323.3032,1388.278388278388,,1,2,1768785844.3233032
1768785844331.1155,1386.8131868131868,,1,2,1768785844.3311155
1768785844338.9282,1385.3479853479853,,1,2,1768785844.3389282
1768785844346.7407,1386.080586080586,,1,2,1768785844.3467407
1768785844354.5532,1386.8131868131868,,1,2,1768785844.3545532
1768785844362.3655,1386.8131868131868,,1,2,1768785844.3623655
1768785844370.1782,1383.8827838827838,,1,2,1768785844.3701782
1768785844377.9907,1379.4871794871794,,1,2,1768785844.3779907
1768785844385.8032,1378.021978021978,,1,2,1768785844.3858032
1768785844393.6155,1377.2893772893772,,1,2,1768785844.3936155
1768785844401.4282,1378.021978021978,,1,2,1768785844.4014282
1768785844409.2407,1375.8241758241757,,1,2,1768785844.4092407
1768785844417.0532,1371.428571428571,,1,2,1768785844.4170532
1768785844424.8655,1365.5677655677655,,1,2,1768785844.4248655
1768785844432.6782,1362.6373626373625,,1,2,1768785844.4326782
1768785844440.4907,1358.974358974359,,1,2,1768785844.4404907
1768785844448.3032,1357.5091575091574,,1,2,1768785844.4483032
1768785844456.1155,1356.043956043956,,1,2,1768785844.4561155
1768785844463.9282,1353.8461538461538,,1,2,1768785844.4639282
1768785844471.7407,1353.113553113553,,1,2,1768785844.4717407
1768785844479.5532,1348.7179487179487,,1,2,1768785844.4795532
1768785844487.3655,1345.7875457875457,,1,2,1768785844.4873655
1768785844495.1782,1344.3223443223442,,1,2,1768785844.4951782
1768785844502.9907,1344.3223443223442,,1,2,1768785844.5029907
1768785844510.8032,1344.3223443223442,,1,2,1768785844.5108032
1768785844518.6155,1344.3223443223442,,1,2,1768785844.5186155
1768785844526.4282,1345.7875457875457,,1,2,1768785844.5264282
1768785844534.2407,1346.5201465201465,,1,2,1768785844.5342407
1768785844542.0532,1346.5201465201465,,1,2,1768785844.5420532
1768785844549.8655,1344.3223443223442,,1,2,1768785844.5498655
1768785844557.6782,1339.92673992674,,1,2,1768785844.5576782
1768785844565.4907,1332.6007326007325,,1,2,1768785844.5654907
1768785844573.3032,1326.007326007326,,1,2,1768785844.5733032
1768785844581.1155,1320.14652014652,,1,2,1768785844.5811155
1768785844588.9282,1320.8791208791208,,1,2,1768785844.5889282
1768785844596.7407,1326.739926739927,,1,2,1768785844.5967407
1768785844604.5532,1331.8681318681315,,1,2,1768785844.6045532
1768785844612.3655,1335.5311355311355,,1,2,1768785844.6123655
1768785844620.1782,1334.7985347985348,,1,2,1768785844.6201782
1768785844627.9907,1336.9963369963368,,1,2,1768785844.6279907
1768785844635.8032,1334.7985347985348,,1,2,1768785844.6358032
1768785844643.6155,1335.5311355311355,,1,2,1768785844.6436155
1768785844651.4282,1337.7289377289376,,1,2,1768785844.6514282
1768785844659.2407,1337.7289377289376,,1,2,1768785844.6592407
1768785844667.0532,1334.7985347985348,,1,2,1768785844.6670532
1768785844674.8655,1328.937728937729,,1,2,1768785844.6748655
1768785844682.6782,1323.076923076923,,1,2,1768785844.6826782
1768785844690.4907,1321.6117216117216,,1,2,1768785844.6904907
1768785844698.3032,1320.8791208791208,,1,2,1768785844.6983032
1768785844706.1155,1320.14652014652,,1,2,1768785844.7061155
1768785844713.9282,1320.14652014652,,1,2,1768785844.7139282
1768785844721.7407,1326.739926739927,,1,2,1768785844.7217407
1768785844729.5532,1329.6703296703297,,1,2,1768785844.7295532
1768785844737.3655,1329.6703296703297,,1,2,1768785844.7373655
1768785844745.1782,1327.4725274725274,,1,2,1768785844.7451782
1768785844752.9907,1325.2747252747251,,1,2,1768785844.7529907
1768785844760.8032,1321.6117216117216,,1,2,1768785844.7608032
1768785844768.6155,1315.7509157509155,,1,2,1768785844.7686155
1768785844776.4282,1310.6227106227104,,1,2,1768785844.7764282
1768785844784.2407,1306.9597069597069,,1,2,1768785844.7842407
1768785844792.0532,1304.7619047619046,,1,2,1768785844.7920532
1768785844799.8655,1306.227106227106,,1,2,1768785844.7998655
1768785844807.6782,1309.1575091575091,,1,2,1768785844.8076782
1768785844815.4907,1313.5531135531137,,1,2,1768785844.8154907
1768785844823.3032,1315.7509157509155,,1,2,1768785844.8233032
1768785844831.1155,1320.14652014652,,1,2,1768785844.8311155
1768785844838.9282,1326.739926739927,,1,2,1768785844.8389282
1768785844846.7407,1338.4615384615383,,1,2,1768785844.8467407
1768785844854.5532,1355.311355311355,,1,2,1768785844.8545532
1768785844862.3655,1372.161172161172,,1,2,1768785844.8623655
1768785844870.1782,1384.6153846153843,,1,2,1768785844.8701782
1768785844877.9907,1394.8717948717947,,1,2,1768785844.8779907
1768785844885.8032,1403.6630036630036,,1,2,1768785844.8858032
1768785844893.6155,1406.5934065934066,,1,2,1768785844.8936155
1768785844901.4282,1403.6630036630036,,1,2,1768785844.9014282
1768785844909.2407,1402.197802197802,,1,2,1768785844.9092407
1768785844917.0532,1399.2673992673992,,1,2,1768785844.9170532
1768785844924.8655,1400.0,,1,2,1768785844.9248655
1768785844932.6782,1405.8608058608058,,1,2,1768785844.9326782
1768785844940.4907,1405.8608058608058,,1,2,1768785844.9404907
1768785844948.3032,1407.3260073260071,,1,2,1768785844.9483032
1768785844956.1155,1409.5238095238094,,1,2,1768785844.9561155
1768785844963.9282,1410.989010989011,,1,2,1768785844.9639282
1768785844971.7407,1419.047619047619,,1,2,1768785844.9717407
1768785844979.5532,1420.5128205128203,,1,2,1768785844.9795532
1768785844987.3655,1422.7106227106226,,1,2,1768785844.9873655
1768785844995.1782,1424.175824175824,,1,2,1768785844.9951782
1768785845002.9907,1419.047619047619,,1,2,1768785845.0029907
1768785845010.8032,1417.5824175824175,,1,2,1768785845.0108032
1768785845018.6155,1419.7802197802198,,1,2,1768785845.0186155
1768785845026.4282,1413.9194139194135,,1,2,1768785845.0264282
1768785845034.2407,1408.058608058608,,1,2,1768785845.0342407
1768785845042.0532,1401.4652014652013,,1,2,1768785845.0420532
1768785845049.8655,1392.6739926739926,,1,2,1768785845.0498655
1768785845057.6782,1391.2087912087911,,1,2,1768785845.0576782
1768785845065.4907,1384.6153846153843,,1,2,1768785845.0654907
1768785845073.3032,1380.952380952381,,1,2,1768785845.0733032
1768785845081.1155,1377.2893772893772,,1,2,1768785845.0811155
1768785845088.9282,1369.9633699633698,,1,2,1768785845.0889282
1768785845096.7407,1367.032967032967,,1,2,1768785845.0967407
1768785845104.5532,1365.5677655677655,,1,2,1768785845.1045532
1768785845112.3655,1365.5677655677655,,1,2,1768785845.1123655
1768785845120.1782,1367.7655677655678,,1,2,1768785845.1201782
1768785845127.9907,1366.3003663003662,,1,2,1768785845.1279907
1768785845135.8032,1366.3003663003662,,1,2,1768785845.1358032
1768785845143.6155,1369.230769230769,,1,2,1768785845.1436155
1768785845151.4282,1367.7655677655678,,1,2,1768785845.1514282
1768785845159.2407,1366.3003663003662,,1,2,1768785845.1592407
1768785845167.0532,1367.7655677655678,,1,2,1768785845.1670532
1768785845174.8655,1368.4981684981683,,1,2,1768785845.1748655
1768785845182.6782,1365.5677655677655,,1,2,1768785845.1826782
1768785845190.4907,1361.904761904762,,1,2,1768785845.1904907
1768785845198.3032,1352.3809523809523,,1,2,1768785845.1983032
1768785845206.1155,1343.5897435897434,,1,2,1768785845.2061155
1768785845213.9282,1342.124542124542,,1,2,1768785845.2139282
1768785845221.7407,1338.4615384615383,,1,2,1768785845.2217407
1768785845229.5532,1336.9963369963368,,1,2,1768785845.2295532
1768785845237.3655,1336.9963369963368,,1,2,1768785845.2373655
1768785845245.1782,1331.8681318681315,,1,2,1768785845.2451782
1768785845252.9907,1326.739926739927,,1,2,1768785845.2529907
1768785845260.8032,1323.8095238095236,,1,2,1768785845.2608032
1768785845268.6155,1319.4139194139193,,1,2,1768785845.2686155
1768785845276.4282,1321.6117216117216,,1,2,1768785845.2764282
1768785845284.2407,1326.007326007326,,1,2,1768785845.2842407
1768785845292.0532,1328.937728937729,,1,2,1768785845.2920532
1768785845299.8655,1334.7985347985348,,1,2,1768785845.2998655
1768785845307.6782,1339.194139194139,,1,2,1768785845.3076782
1768785845315.4907,1339.194139194139,,1,2,1768785845.3154907
1768785845323.3032,1341.3919413919414,,1,2,1768785845.3233032
1768785845331.1155,1343.5897435897434,,1,2,1768785845.3311155
1768785845338.9282,1342.857142857143,,1,2,1768785845.3389282
1768785845346.7407,1347.985347985348,,1,2,1768785845.3467407
1768785845354.5532,1349.4505494505493,,1,2,1768785845.3545532
1768785845362.3655,1353.113553113553,,1,2,1768785845.3623655
1768785845370.1782,1352.3809523809523,,1,2,1768785845.3701782
1768785845377.9907,1354.5787545787546,,1,2,1768785845.3779907
1768785845385.8032,1350.9157509157508,,1,2,1768785845.3858032
1768785845393.6155,1348.7179487179487,,1,2,1768785845.3936155
1768785845401.4282,1343.5897435897434,,0,-1,1768785845.4014282
1768785845409.2407,1340.6593406593406,,0,-1,1768785845.4092407
1768785845417.0532,1339.92673992674,,0,-1,1768785845.4170532
1768785845424.8655,1335.5311355311355,,0,-1,1768785845.4248655
1768785845432.6782,1340.6593406593406,,0,-1,1768785845.4326782
1768785845440.4907,1339.194139194139,,0,-1,1768785845.4404907
1768785845448.3032,1342.124542124542,,0,-1,1768785845.4483032
1768785845456.1155,1343.5897435897434,,0,-1,1768785845.4561155
1768785845463.9282,1342.857142857143,,0,-1,1768785845.4639282
1768785845471.7407,1343.5897435897434,,0,-1,1768785845.4717407
1768785845479.5532,1341.3919413919414,,0,-1,1768785845.4795532
1768785845487.3655,1339.194139194139,,0,-1,1768785845.4873655
1768785845495.1782,1329.6703296703297,,0,-1,1768785845.4951782
1768785845502.9907,1322.3443223443223,,0,-1,1768785845.5029907
1768785845510.8032,1319.4139194139193,,0,-1,1768785845.5108032
1768785845518.6155,1315.018315018315,,0,-1,1768785845.5186155
1768785845526.4282,1313.5531135531137,,0,-1,1768785845.5264282
1768785845534.2407,1312.087912087912,,0,-1,1768785845.5342407
1768785845542.0532,1310.6227106227104,,0,-1,1768785845.5420532
1768785845549.8655,1308.4249084249084,,0,-1,1768785845.5498655
1768785845557.6782,1306.9597069597069,,0,-1,1768785845.5576782
1768785845565.4907,1304.7619047619046,,0,-1,1768785845.5654907
1768785845573.3032,1306.9597069597069,,0,-1,1768785845.5733032
1768785845581.1155,1304.7619047619046,,0,-1,1768785845.5811155
1768785845588.9282,1308.4249084249084,,0,-1,1768785845.5889282
1768785845596.7407,1308.4249084249084,,0,-1,1768785845.5967407
1768785845604.5532,1308.4249084249084,,0,-1,1768785845.6045532
1768785845612.3655,1307.6923076923076,,0,-1,1768785845.6123655
1768785845620.1782,1306.227106227106,,0,-1,1768785845.6201782
1768785845627.9907,1310.6227106227104,,0,-1,1768785845.6279907
1768785845635.8032,1309.89010989011,,0,-1,1768785845.6358032
1768785845643.6155,1315.018315018315,,0,-1,1768785845.6436155
1768785845651.4282,1317.216117216117,,0,-1,1768785845.6514282
1768785845659.2407,1322.3443223443223,,0,-1,1768785845.6592407
1768785845667.0532,1323.076923076923,,0,-1,1768785845.6670532
1768785845674.8655,1324.5421245421244,,0,-1,1768785845.6748655
1768785845682.6782,1326.007326007326,,0,-1,1768785845.6826782
1768785845690.4907,1333.3333333333333,,0,-1,1768785845.6904907
1768785845698.3032,1344.3223443223442,,0,-1,1768785845.6983032
1768785845706.1155,1353.113553113553,,0,-1,1768785845.7061155
1768785845713.9282,1366.3003663003662,,0,-1,1768785845.7139282
1768785845721.7407,1373.6263736263736,,0,-1,1768785845.7217407
1768785845729.5532,1384.6153846153843,,0,-1,1768785845.7295532
1768785845737.3655,1391.2087912087911,,0,-1,1768785845.7373655
1768785845745.1782,1393.4065934065934,,0,-1,1768785845.7451782
1768785845752.9907,1397.069597069597,,0,-1,1768785845.7529907
1768785845760.8032,1393.4065934065934,,0,-1,1768785845.7608032
1768785845768.6155,1397.069597069597,,0,-1,1768785845.7686155
1768785845776.4282,1391.941391941392,,0,-1,1768785845.7764282
1768785845784.2407,1390.4761904761904,,0,-1,1768785845.7842407
1768785845792.0532,1383.8827838827838,,0,-1,1768785845.7920532
1768785845799.8655,1381.6849816849815,,0,-1,1768785845.7998655
1768785845807.6782,1379.4871794871794,,0,-1,1768785845.8076782
1768785845815.4907,1375.8241758241757,,0,-1,1768785845.8154907
1768785845823.3032,1374.3589743589744,,0,-1,1768785845.8233032
1768785845831.1155,1366.3003663003662,,0,-1,1768785845.8311155
1768785845838.9282,1364.102564102564,,0,-1,1768785845.8389282
1768785845846.7407,1361.1721611721612,,0,-1,1768785845.8467407
1768785845854.5532,1364.102564102564,,0,-1,1768785845.8545532
1768785845862.3655,1366.3003663003662,,0,-1,1768785845.8623655
1768785845870.1782,1377.2893772893772,,0,-1,1768785845.8701782
1768785845877.9907,1383.150183150183,,0,-1,1768785845.8779907
1768785845885.8032,1393.4065934065934,,0,-1,1768785845.8858032
1768785845893.6155,1396.3369963369962,,0,-1,1768785845.8936155
1768785845901.4282,1396.3369963369962,,0,-1,1768785845.9014282
1768785845909.2407,1390.4761904761904,,0,-1,1768785845.9092407
1768785845917.0532,1386.8131868131868,,0,-1,1768785845.9170532
1768785845924.8655,1376.5567765567764,,0,-1,1768785845.9248655
1768785845932.6782,1369.9633699633698,,0,-1,1768785845.9326782
1768785845940.4907,1363.3699633699632,,0,-1,1768785845.9404907
1768785845948.3032,1356.7765567765566,,0,-1,1768785845.9483032
1768785845956.1155,1358.241758241758,,0,-1,1768785845.9561155
1768785845963.9282,1356.7765567765566,,0,-1,1768785845.9639282
1768785845971.7407,1361.1721611721612,,0,-1,1768785845.9717407
1768785845979.5532,1360.4395604395604,,0,-1,1768785845.9795532
1768785845987.3655,1361.1721611721612,,0,-1,1768785845.9873655
1768785845995.1782,1358.974358974359,,0,-1,1768785845.9951782
1768785846002.9907,1353.113553113553,,0,-1,1768785846.0029907
1768785846010.8032,1351.6483516483515,,0,-1,1768785846.0108032
1768785846018.6155,1347.2527472527472,,0,-1,1768785846.0186155
1768785846026.4282,1351.6483516483515,,0,-1,1768785846.0264282
1768785846034.2407,1352.3809523809523,,0,-1,1768785846.0342407
1768785846042.0532,1357.5091575091574,,0,-1,1768785846.0420532
1768785846049.8655,1358.241758241758,,0,-1,1768785846.0498655
1768785846057.6782,1357.5091575091574,,0,-1,1768785846.0576782
1768785846065.4907,1356.7765567765566,,0,-1,1768785846.0654907
1768785846073.3032,1346.5201465201465,,0,-1,1768785846.0733032
1768785846081.1155,1339.194139194139,,0,-1,1768785846.0811155
1768785846088.9282,1327.4725274725274,,0,-1,1768785846.0889282
1768785846096.7407,1319.4139194139193,,0,-1,1768785846.0967407
1768785846104.5532,1313.5531135531137,,0,-1,1768785846.1045532
1768785846112.3655,1311.3553113553112,,0,-1,1768785846.1123655
1768785846120.1782,1312.8205128205127,,0,-1,1768785846.1201782
1768785846127.9907,1314.2857142857142,,0,-1,1768785846.1279907
1768785846135.8032,1319.4139194139193,,0,-1,1768785846.1358032
1768785846143.6155,1320.8791208791208,,0,-1,1768785846.1436155
1768785846151.4282,1323.8095238095236,,0,-1,1768785846.1514282
1768785846159.2407,1322.3443223443223,,0,-1,1768785846.1592407
1768785846167.0532,1328.2051282051282,,0,-1,1768785846.1670532
1768785846174.8655,1327.4725274725274,,0,-1,1768785846.1748655
1768785846182.6782,1330.4029304029302,,0,-1,1768785846.1826782
1768785846190.4907,1330.4029304029302,,0,-1,1768785846.1904907
1768785846198.3032,1336.9963369963368,,0,-1,1768785846.1983032
1768785846206.1155,1339.92673992674,,0,-1,1768785846.2061155
1768785846213.9282,1344.3223443223442,,0,-1,1768785846.2139282
1768785846221.7407,1347.2527472527472,,0,-1,1768785846.2217407
1768785846229.5532,1347.985347985348,,0,-1,1768785846.2295532
1768785846237.3655,1345.7875457875457,,0,-1,1768785846.2373655
1768785846245.1782,1345.054945054945,,0,-1,1768785846.2451782
1768785846252.9907,1342.857142857143,,0,-1,1768785846.2529907
1768785846260.8032,1339.92673992674,,0,-1,1768785846.2608032
1768785846268.6155,1330.4029304029302,,0,-1,1768785846.2686155
1768785846276.4282,1326.007326007326,,0,-1,1768785846.2764282
1768785846284.2407,1318.6813186813183,,0,-1,1768785846.2842407
1768785846292.0532,1317.216117216117,,0,-1,1768785846.2920532
1768785846299.8655,1315.018315018315,,0,-1,1768785846.2998655
1768785846307.6782,1311.3553113553112,,0,-1,1768785846.3076782
1768785846315.4907,1304.7619047619046,,0,-1,1768785846.3154907
1768785846323.3032,1298.168498168498,,0,-1,1768785846.3233032
1768785846331.1155,1299.6336996336995,,0,-1,1768785846.3311155
1768785846338.9282,1299.6336996336995,,0,-1,1768785846.3389282
1768785846346.7407,1300.3663003663005,,0,-1,1768785846.3467407
1768785846354.5532,1302.5641025641023,,0,-1,1768785846.3545532
1768785846362.3655,1309.1575091575091,,0,-1,1768785846.3623655
1768785846370.1782,1316.4835164835165,,0,-1,1768785846.3701782
1768785846377.9907,1321.6117216117216,,0,-1,1768785846.3779907
1768785846385.8032,1328.2051282051282,,0,-1,1768785846.3858032
1768785846393.6155,1326.007326007326,,0,-1,1768785846.3936155
1768785846401.4282,1326.739926739927,,0,-1,1768785846.4014282
1768785846409.2407,1322.3443223443223,,0,-1,1768785846.4092407
1768785846417.0532,1322.3443223443223,,0,-1,1768785846.4170532
1768785846424.8655,1317.216117216117,,0,-1,1768785846.4248655
1768785846432.6782,1310.6227106227104,,0,-1,1768785846.4326782
1768785846440.4907,1307.6923076923076,,0,-1,1768785846.4404907
1768785846448.3032,1302.5641025641023,,0,-1,1768785846.4483032
1768785846456.1155,1306.227106227106,,0,-1,1768785846.4561155
1768785846463.9282,1307.6923076923076,,0,-1,1768785846.4639282
1768785846471.7407,1307.6923076923076,,0,-1,1768785846.4717407
1768785846479.5532,1308.4249084249084,,0,-1,1768785846.4795532
1768785846487.3655,1306.227106227106,,0,-1,1768785846.4873655
1768785846495.1782,1306.9597069597069,,0,-1,1768785846.4951782
1768785846502.9907,1303.2967032967033,,0,-1,1768785846.5029907
1768785846510.8032,1304.0293040293038,,0,-1,1768785846.5108032
1768785846518.6155,1301.098901098901,,0,-1,1768785846.5186155
1768785846526.4282,1304.0293040293038,,0,-1,1768785846.5264282
1768785846534.2407,1307.6923076923076,,0,-1,1768785846.5342407
1768785846542.0532,1312.087912087912,,0,-1,1768785846.5420532
1768785846549.8655,1318.6813186813183,,0,-1,1768785846.5498655
1768785846557.6782,1322.3443223443223,,0,-1,1768785846.5576782
1768785846565.4907,1330.4029304029302,,0,-1,1768785846.5654907
1768785846573.3032,1333.3333333333333,,0,-1,1768785846.5733032
1768785846581.1155,1335.5311355311355,,0,-1,1768785846.5811155
1768785846588.9282,1339.194139194139,,0,-1,1768785846.5889282
1768785846596.7407,1339.194139194139,,0,-1,1768785846.5967407
1768785846604.5532,1344.3223443223442,,0,-1,1768785846.6045532
1768785846612.3655,1342.857142857143,,0,-1,1768785846.6123655
1768785846620.1782,1345.054945054945,,0,-1,1768785846.6201782
1768785846627.9907,1348.7179487179487,,0,-1,1768785846.6279907
1768785846635.8032,1350.18315018315,,0,-1,1768785846.6358032
1768785846643.6155,1354.5787545787546,,0,-1,1768785846.6436155
1768785846651.4282,1356.043956043956,,0,-1,1768785846.6514282
1768785846659.2407,1361.1721611721612,,0,-1,1768785846.6592407
1768785846667.0532,1364.8351648351647,,0,-1,1768785846.6670532
1768785846674.8655,1367.7655677655678,,0,-1,1768785846.6748655
1768785846682.6782,1363.3699633699632,,0,-1,1768785846.6826782
1768785846690.4907,1362.6373626373625,,0,-1,1768785846.6904907
1768785846698.3032,1364.102564102564,,0,-1,1768785846.6983032
1768785846706.1155,1367.032967032967,,0,-1,1768785846.7061155
1768785846713.9282,1368.4981684981683,,0,-1,1768785846.7139282
1768785846721.7407,1364.8351648351647,,0,-1,1768785846.7217407
1768785846729.5532,1368.4981684981683,,0,-1,1768785846.7295532
1768785846737.3655,1373.6263736263736,,0,-1,1768785846.7373655
1768785846745.1782,1378.021978021978,,0,-1,1768785846.7451782
1768785846752.9907,1383.8827838827838,,0,-1,1768785846.7529907
1768785846760.8032,1389.7435897435896,,0,-1,1768785846.7608032
1768785846768.6155,1389.0109890109889,,0,-1,1768785846.7686155
1768785846776.4282,1391.941391941392,,0,-1,1768785846.7764282
1768785846784.2407,1384.6153846153843,,0,-1,1768785846.7842407
1768785846792.0532,1378.021978021978,,0,-1,1768785846.7920532
1768785846799.8655,1369.9633699633698,,0,-1,1768785846.7998655
1768785846807.6782,1364.102564102564,,0,-1,1768785846.8076782
1768785846815.4907,1358.974358974359,,0,-1,1768785846.8154907
1768785846823.3032,1360.4395604395604,,0,-1,1768785846.8233032
1768785846831.1155,1361.1721611721612,,0,-1,1768785846.8311155
1768785846838.9282,1357.5091575091574,,0,-1,1768785846.8389282
1768785846846.7407,1356.043956043956,,0,-1,1768785846.8467407
1768785846854.5532,1354.5787545787546,,0,-1,1768785846.8545532
1768785846862.3655,1351.6483516483515,,0,-1,1768785846.8623655
1768785846870.1782,1348.7179487179487,,0,-1,1768785846.8701782
1768785846877.9907,1347.985347985348,,0,-1,1768785846.8779907
1768785846885.8032,1346.5201465201465,,0,-1,1768785846.8858032
1768785846893.6155,1347.2527472527472,,0,-1,1768785846.8936155
1768785846901.4282,1340.6593406593406,,0,-1,1768785846.9014282
1768785846909.2407,1340.6593406593406,,0,-1,1768785846.9092407
1768785846917.0532,1336.263736263736,,0,-1,1768785846.9170532
1768785846924.8655,1337.7289377289376,,0,-1,1768785846.9248655
1768785846932.6782,1342.124542124542,,0,-1,1768785846.9326782
1768785846940.4907,1342.857142857143,,0,-1,1768785846.9404907
1768785846948.3032,1345.054945054945,,0,-1,1768785846.9483032
1768785846956.1155,1347.985347985348,,0,-1,1768785846.9561155
1768785846963.9282,1347.985347985348,,0,-1,1768785846.9639282
1768785846971.7407,1343.5897435897434,,0,-1,1768785846.9717407
1768785846979.5532,1342.124542124542,,0,-1,1768785846.9795532
1768785846987.3655,1337.7289377289376,,0,-1,1768785846.9873655
1768785846995.1782,1336.9963369963368,,0,-1,1768785846.9951782
1768785847002.9907,1338.4615384615383,,0,-1,1768785847.0029907
1768785847010.8032,1338.4615384615383,,0,-1,1768785847.0108032
1768785847018.6155,1339.92673992674,,0,-1,1768785847.0186155
1768785847026.4282,1342.124542124542,,0,-1,1768785847.0264282
1768785847034.2407,1344.3223443223442,,0,-1,1768785847.0342407
1768785847042.0532,1347.985347985348,,0,-1,1768785847.0420532
1768785847049.8655,1350.18315018315,,0,-1,1768785847.0498655
1768785847057.6782,1350.18315018315,,0,-1,1768785847.0576782
1768785847065.4907,1348.7179487179487,,0,-1,1768785847.0654907
1768785847073.3032,1347.985347985348,,0,-1,1768785847.0733032
1768785847081.1155,1345.054945054945,,0,-1,1768785847.0811155
1768785847088.9282,1341.3919413919414,,0,-1,1768785847.0889282
1768785847096.7407,1338.4615384615383,,0,-1,1768785847.0967407
1768785847104.5532,1335.5311355311355,,0,-1,1768785847.1045532
1768785847112.3655,1334.7985347985348,,0,-1,1768785847.1123655
1768785847120.1782,1331.135531135531,,0,-1,1768785847.1201782
1768785847127.9907,1328.937728937729,,0,-1,1768785847.1279907
1768785847135.8032,1328.2051282051282,,0,-1,1768785847.1358032
1768785847143.6155,1328.2051282051282,,0,-1,1768785847.1436155
1768785847151.4282,1330.4029304029302,,0,-1,1768785847.1514282
1768785847159.2407,1331.135531135531,,0,-1,1768785847.1592407
1768785847167.0532,1325.2747252747251,,0,-1,1768785847.1670532
1768785847174.8655,1322.3443223443223,,0,-1,1768785847.1748655
1768785847182.6782,1315.018315018315,,0,-1,1768785847.1826782
1768785847190.4907,1313.5531135531137,,0,-1,1768785847.1904907
1768785847198.3032,1309.1575091575091,,0,-1,1768785847.1983032
1768785847206.1155,1305.4945054945051,,0,-1,1768785847.2061155
1768785847213.9282,1309.1575091575091,,0,-1,1768785847.2139282
1768785847221.7407,1307.6923076923076,,0,-1,1768785847.2217407
1768785847229.5532,1314.2857142857142,,0,-1,1768785847.2295532
1768785847237.3655,1317.216117216117,,0,-1,1768785847.2373655
1768785847245.1782,1316.4835164835165,,0,-1,1768785847.2451782
1768785847252.9907,1320.8791208791208,,0,-1,1768785847.2529907
1768785847260.8032,1320.14652014652,,0,-1,1768785847.2608032
1768785847268.6155,1322.3443223443223,,0,-1,1768785847.2686155
1768785847276.4282,1321.6117216117216,,0,-1,1768785847.2764282
1768785847284.2407,1314.2857142857142,,0,-1,1768785847.2842407
1768785847292.0532,1311.3553113553112,,0,-1,1768785847.2920532
1768785847299.8655,1305.4945054945051,,0,-1,1768785847.2998655
1768785847307.6782,1305.4945054945051,,0,-1,1768785847.3076782
1768785847315.4907,1301.098901098901,,0,-1,1768785847.3154907
1768785847323.3032,1299.6336996336995,,0,-1,1768785847.3233032
1768785847331.1155,1303.2967032967033,,0,-1,1768785847.3311155
1768785847338.9282,1305.4945054945051,,0,-1,1768785847.3389282
1768785847346.7407,1311.3553113553112,,0,-1,1768785847.3467407
1768785847354.5532,1309.1575091575091,,0,-1,1768785847.3545532
1768785847362.3655,1306.9597069597069,,0,-1,1768785847.3623655
1768785847370.1782,1307.6923076923076,,0,-1,1768785847.3701782
1768785847377.9907,1303.2967032967033,,0,-1,1768785847.3779907
1768785847385.8032,1299.6336996336995,,0,-1,1768785847.3858032
1768785847393.6155,1292.3076923076922,,0,-1,1768785847.3936155
1768785847401.4282,1292.3076923076922,,0,-1,1768785847.4014282
1768785847409.2407,1290.10989010989,,0,-1,1768785847.4092407
1768785847417.0532,1292.3076923076922,,0,-1,1768785847.4170532
1768785847424.8655,1291.5750915750914,,0,-1,1768785847.4248655
1768785847432.6782,1290.10989010989,,1,3,1768785847.4326782
1768785847440.4907,1296.7032967032967,,1,3,1768785847.4404907
1768785847448.3032,1297.4358974358977,,1,3,1768785847.4483032
1768785847456.1155,1300.3663003663005,,1,3,1768785847.4561155
1768785847463.9282,1303.2967032967033,,1,3,1768785847.4639282
1768785847471.7407,1304.0293040293038,,1,3,1768785847.4717407
1768785847479.5532,1304.7619047619046,,1,3,1768785847.4795532
1768785847487.3655,1307.6923076923076,,1,3,1768785847.4873655
1768785847495.1782,1310.6227106227104,,1,3,1768785847.4951782
1768785847502.9907,1307.6923076923076,,1,3,1768785847.5029907
1768785847510.8032,1309.89010989011,,1,3,1768785847.5108032
1768785847518.6155,1312.087912087912,,1,3,1768785847.5186155
1768785847526.4282,1317.9487179487178,,1,3,1768785847.5264282
1768785847534.2407,1327.4725274725274,,1,3,1768785847.5342407
1768785847542.0532,1331.135531135531,,1,3,1768785847.5420532
1768785847549.8655,1338.4615384615383,,1,3,1768785847.5498655
1768785847557.6782,1349.4505494505493,,1,3,1768785847.5576782
1768785847565.4907,1353.113553113553,,1,3,1768785847.5654907
1768785847573.3032,1360.4395604395604,,1,3,1768785847.5733032
1768785847581.1155,1368.4981684981683,,1,3,1768785847.5811155
1768785847588.9282,1378.7545787545787,,1,3,1768785847.5889282
1768785847596.7407,1396.3369963369962,,1,3,1768785847.5967407
1768785847604.5532,1408.7912087912086,,1,3,1768785847.6045532
1768785847612.3655,1427.106227106227,,1,3,1768785847.6123655
1768785847620.1782,1443.956043956044,,1,3,1768785847.6201782
1768785847627.9907,1456.4102564102564,,1,3,1768785847.6279907
1768785847635.8032,1471.062271062271,,1,3,1768785847.6358032
1768785847643.6155,1477.6556776556777,,1,3,1768785847.6436155
1768785847651.4282,1489.3772893772891,,1,3,1768785847.6514282
1768785847659.2407,1497.4358974358972,,1,3,1768785847.6592407
1768785847667.0532,1512.8205128205127,,1,3,1768785847.6670532
1768785847674.8655,1523.0769230769229,,1,3,1768785847.6748655
1768785847682.6782,1536.9963369963368,,1,3,1768785847.6826782
1768785847690.4907,1539.194139194139,,1,3,1768785847.6904907
1768785847698.3032,1544.3223443223442,,1,3,1768785847.6983032
1768785847706.1155,1538.4615384615383,,1,3,1768785847.7061155
1768785847713.9282,1533.3333333333333,,1,3,1768785847.7139282
1768785847721.7407,1524.5421245421244,,1,3,1768785847.7217407
1768785847729.5532,1523.8095238095236,,1,3,1768785847.7295532
1768785847737.3655,1525.2747252747251,,1,3,1768785847.7373655
1768785847745.1782,1534.7985347985348,,1,3,1768785847.7451782
1768785847752.9907,1536.9963369963368,,1,3,1768785847.7529907
1768785847760.8032,1539.92673992674,,1,3,1768785847.7608032
1768785847768.6155,1540.6593406593406,,1,3,1768785847.7686155
1768785847776.4282,1536.9963369963368,,1,3,1768785847.7764282
1768785847784.2407,1533.3333333333333,,1,3,1768785847.7842407
1768785847792.0532,1520.8791208791208,,1,3,1768785847.7920532
1768785847799.8655,1512.8205128205127,,1,3,1768785847.7998655
1768785847807.6782,1498.9010989010987,,1,3,1768785847.8076782
1768785847815.4907,1490.8424908424906,,1,3,1768785847.8154907
1768785847823.3032,1484.9816849816848,,1,3,1768785847.8233032
1768785847831.1155,1476.190476190476,,1,3,1768785847.8311155
1768785847838.9282,1465.9340659340658,,1,3,1768785847.8389282
1768785847846.7407,1449.8168498168498,,1,3,1768785847.8467407
1768785847854.5532,1437.362637362637,,1,3,1768785847.8545532
1768785847862.3655,1428.5714285714284,,1,3,1768785847.8623655
1768785847870.1782,1414.6520146520145,,1,3,1768785847.8701782
1768785847877.9907,1410.989010989011,,1,3,1768785847.8779907
1768785847885.8032,1415.3846153846152,,1,3,1768785847.8858032
1768785847893.6155,1418.3150183150185,,1,3,1768785847.8936155
1768785847901.4282,1428.5714285714284,,1,3,1768785847.9014282
1768785847909.2407,1440.29304029304,,1,3,1768785847.9092407
1768785847917.0532,1457.875457875458,,1,3,1768785847.9170532
1768785847924.8655,1473.260073260073,,1,3,1768785847.9248655
1768785847932.6782,1484.2490842490845,,1,3,1768785847.9326782
1768785847940.4907,1501.8315018315018,,1,3,1768785847.9404907
1768785847948.3032,1523.0769230769229,,1,3,1768785847.9483032
1768785847956.1155,1538.4615384615383,,1,3,1768785847.9561155
1768785847963.9282,1556.7765567765566,,1,3,1768785847.9639282
1768785847971.7407,1579.4871794871794,,1,3,1768785847.9717407
1768785847979.5532,1600.0,,1,3,1768785847.9795532
1768785847987.3655,1619.047619047619,,1,3,1768785847.9873655
1768785847995.1782,1637.362637362637,,1,3,1768785847.9951782
1768785848002.9907,1646.8864468864467,,1,3,1768785848.0029907
1768785848010.8032,1657.142857142857,,1,3,1768785848.0108032
1768785848018.6155,1659.3406593406592,,1,3,1768785848.0186155
1768785848026.4282,1668.131868131868,,1,3,1768785848.0264282
1768785848034.2407,1687.179487179487,,1,3,1768785848.0342407
1768785848042.0532,1715.7509157509155,,1,3,1768785848.0420532
1768785848049.8655,1763.3699633699632,,1,3,1768785848.0498655
1768785848057.6782,1817.5824175824173,,1,3,1768785848.0576782
1768785848065.4907,1882.7838827838827,,1,3,1768785848.0654907
1768785848073.3032,1939.194139194139,,1,3,1768785848.0733032
1768785848081.1155,2000.7326007326003,,1,3,1768785848.0811155
1768785848088.9282,2067.399267399267,,1,3,1768785848.0889282
1768785848096.7407,2152.3809523809523,,1,3,1768785848.0967407
1768785848104.5532,2238.8278388278386,,1,3,1768785848.1045532
1768785848112.3655,2315.750915750916,,1,3,1768785848.1123655
1768785848120.1782,2369.230769230769,,1,3,1768785848.1201782
1768785848127.9907,2393.4065934065934,,1,3,1768785848.1279907
1768785848135.8032,2391.208791208791,,1,3,1768785848.1358032
1768785848143.6155,2361.172161172161,,1,3,1768785848.1436155
1768785848151.4282,2306.227106227106,,1,3,1768785848.1514282
1768785848159.2407,2238.8278388278386,,1,3,1768785848.1592407
1768785848167.0532,2150.915750915751,,1,3,1768785848.1670532
1768785848174.8655,2052.747252747253,,1,3,1768785848.1748655
1768785848182.6782,1953.8461538461536,,1,3,1768785848.1826782
1768785848190.4907,1856.4102564102564,,1,3,1768785848.1904907
1768785848198.3032,1761.9047619047617,,1,3,1768785848.1983032
1768785848206.1155,1676.190476190476,,1,3,1768785848.2061155
1768785848213.9282,1594.8717948717947,,1,3,1768785848.2139282
1768785848221.7407,1523.8095238095236,,1,3,1768785848.2217407
1768785848229.5532,1461.5384615384614,,1,3,1768785848.2295532
1768785848237.3655,1409.5238095238094,,1,3,1768785848.2373655
1768785848245.1782,1372.161172161172,,1,3,1768785848.2451782
1768785848252.9907,1337.7289377289376,,1,3,1768785848.2529907
1768785848260.8032,1315.018315018315,,1,3,1768785848.2608032
1768785848268.6155,1293.7728937728937,,1,3,1768785848.2686155
1768785848276.4282,1280.5860805860805,,1,3,1768785848.2764282
1768785848284.2407,1267.3992673992673,,1,3,1768785848.2842407
1768785848292.0532,1257.875457875458,,1,3,1768785848.2920532
1768785848299.8655,1246.8864468864467,,1,3,1768785848.2998655
1768785848307.6782,1234.4322344322345,,1,3,1768785848.3076782
1768785848315.4907,1230.03663003663,,1,3,1768785848.3154907
1768785848323.3032,1224.9084249084249,,1,3,1768785848.3233032
1768785848331.1155,1227.106227106227,,1,3,1768785848.3311155
1768785848338.9282,1226.3736263736264,,1,3,1768785848.3389282
1768785848346.7407,1231.5018315018317,,1,3,1768785848.3467407
1768785848354.5532,1233.6996336996335,,1,3,1768785848.3545532
1768785848362.3655,1233.6996336996335,,1,3,1768785848.3623655
1768785848370.1782,1236.6300366300366,,1,3,1768785848.3701782
1768785848377.9907,1237.362637362637,,1,3,1768785848.3779907
1768785848385.8032,1233.6996336996335,,1,3,1768785848.3858032
1768785848393.6155,1230.03663003663,,1,3,1768785848.3936155
1768785848401.4282,1230.7692307692307,,1,3,1768785848.4014282
1768785848409.2407,1232.2344322344322,,1,3,1768785848.4092407
1768785848417.0532,1236.6300366300366,,1,3,1768785848.4170532
1768785848424.8655,1246.8864468864467,,1,3,1768785848.4248655
1768785848432.6782,1255.6776556776556,,1,3,1768785848.4326782
1768785848440.4907,1263.7362637362637,,1,3,1768785848.4404907
1768785848448.3032,1269.5970695970695,,1,3,1768785848.4483032
1768785848456.1155,1268.8644688644688,,1,3,1768785848.4561155
1768785848463.9282,1265.2014652014652,,1,3,1768785848.4639282
1768785848471.7407,1264.4688644688645,,1,3,1768785848.4717407
1768785848479.5532,1265.9340659340658,,1,3,1768785848.4795532
1768785848487.3655,1269.5970695970695,,1,3,1768785848.4873655
1768785848495.1782,1273.260073260073,,1,3,1768785848.4951782
1768785848502.9907,1281.3186813186812,,1,3,1768785848.5029907
1768785848510.8032,1288.6446886446886,,1,3,1768785848.5108032
1768785848518.6155,1296.7032967032967,,1,3,1768785848.5186155
1768785848526.4282,1309.89010989011,,1,3,1768785848.5264282
1768785848534.2407,1321.6117216117216,,1,3,1768785848.5342407
1768785848542.0532,1335.5311355311355,,1,3,1768785848.5420532
1768785848549.8655,1353.8461538461538,,1,3,1768785848.5498655
1768785848557.6782,1377.2893772893772,,1,3,1768785848.5576782
1768785848565.4907,1400.0,,1,3,1768785848.5654907
1768785848573.3032,1419.7802197802198,,1,3,1768785848.5733032
1768785848581.1155,1435.8974358974358,,1,3,1768785848.5811155
1768785848588.9282,1447.6190476190477,,1,3,1768785848.5889282
1768785848596.7407,1458.6080586080584,,1,3,1768785848.5967407
1768785848604.5532,1462.2710622710622,,1,3,1768785848.6045532
1768785848612.3655,1463.003663003663,,1,3,1768785848.6123655
1768785848620.1782,1465.201465201465,,1,3,1768785848.6201782
1768785848627.9907,1471.062271062271,,1,3,1768785848.6279907
1768785848635.8032,1473.260073260073,,1,3,1768785848.6358032
1768785848643.6155,1474.7252747252746,,1,3,1768785848.6436155
1768785848651.4282,1478.3882783882782,,1,3,1768785848.6514282
1768785848659.2407,1476.923076923077,,1,3,1768785848.6592407
1768785848667.0532,1469.5970695970695,,1,3,1768785848.6670532
1768785848674.8655,1463.7362637362637,,1,3,1768785848.6748655
1768785848682.6782,1461.5384615384614,,1,3,1768785848.6826782
1768785848690.4907,1461.5384615384614,,1,3,1768785848.6904907
1768785848698.3032,1456.4102564102564,,1,3,1768785848.6983032
1768785848706.1155,1449.8168498168498,,1,3,1768785848.7061155
1768785848713.9282,1445.4212454212454,,1,3,1768785848.7139282
1768785848721.7407,1445.4212454212454,,1,3,1768785848.7217407
1768785848729.5532,1441.0256410256409,,1,3,1768785848.7295532
1768785848737.3655,1438.095238095238,,1,3,1768785848.7373655
1768785848745.1782,1434.4322344322345,,1,3,1768785848.7451782
1768785848752.9907,1429.3040293040292,,1,3,1768785848.7529907
1768785848760.8032,1423.4432234432234,,1,3,1768785848.7608032
1768785848768.6155,1413.9194139194135,,1,3,1768785848.7686155
1768785848776.4282,1405.8608058608058,,1,3,1768785848.7764282
1768785848784.2407,1399.2673992673992,,1,3,1768785848.7842407
1768785848792.0532,1394.139194139194,,1,3,1768785848.7920532
1768785848799.8655,1388.278388278388,,1,3,1768785848.7998655
1768785848807.6782,1378.021978021978,,1,3,1768785848.8076782
1768785848815.4907,1367.7655677655678,,1,3,1768785848.8154907
1768785848823.3032,1358.974358974359,,1,3,1768785848.8233032
1768785848831.1155,1352.3809523809523,,1,3,1768785848.8311155
1768785848838.9282,1347.985347985348,,1,3,1768785848.8389282
1768785848846.7407,1344.3223443223442,,1,3,1768785848.8467407
1768785848854.5532,1344.3223443223442,,1,3,1768785848.8545532
1768785848862.3655,1347.2527472527472,,1,3,1768785848.8623655
1768785848870.1782,1347.985347985348,,1,3,1768785848.8701782
1768785848877.9907,1348.7179487179487,,1,3,1768785848.8779907
1768785848885.8032,1349.4505494505493,,1,3,1768785848.8858032
1768785848893.6155,1353.113553113553,,1,3,1768785848.8936155
1768785848901.4282,1356.7765567765566,,1,3,1768785848.9014282
1768785848909.2407,1358.241758241758,,1,3,1768785848.9092407
1768785848917.0532,1356.7765567765566,,1,3,1768785848.9170532
1768785848924.8655,1358.241758241758,,1,3,1768785848.9248655
1768785848932.6782,1360.4395604395604,,1,3,1768785848.9326782
1768785848940.4907,1361.1721611721612,,1,3,1768785848.9404907
1768785848948.3032,1358.241758241758,,1,3,1768785848.9483032
1768785848956.1155,1357.5091575091574,,1,3,1768785848.9561155
1768785848963.9282,1358.241758241758,,0,-1,1768785848.9639282
1768785848971.7407,1358.241758241758,,0,-1,1768785848.9717407
1768785848979.5532,1356.7765567765566,,0,-1,1768785848.9795532
1768785848987.3655,1353.8461538461538,,0,-1,1768785848.9873655
1768785848995.1782,1353.8461538461538,,0,-1,1768785848.9951782
1768785849002.9907,1358.241758241758,,0,-1,1768785849.0029907
1768785849010.8032,1361.1721611721612,,0,-1,1768785849.0108032
1768785849018.6155,1361.1721611721612,,0,-1,1768785849.0186155
1768785849026.4282,1361.1721611721612,,0,-1,1768785849.0264282
1768785849034.2407,1361.904761904762,,0,-1,1768785849.0342407
1768785849042.0532,1361.904761904762,,0,-1,1768785849.0420532
1768785849049.8655,1355.311355311355,,0,-1,1768785849.0498655
1768785849057.6782,1345.054945054945,,0,-1,1768785849.0576782
1768785849065.4907,1334.065934065934,,0,-1,1768785849.0654907
1768785849073.3032,1323.8095238095236,,0,-1,1768785849.0733032
1768785849081.1155,1322.3443223443223,,0,-1,1768785849.0811155
1768785849088.9282,1325.2747252747251,,0,-1,1768785849.0889282
1768785849096.7407,1330.4029304029302,,0,-1,1768785849.0967407
1768785849104.5532,1332.6007326007325,,0,-1,1768785849.1045532
1768785849112.3655,1335.5311355311355,,0,-1,1768785849.1123655
1768785849120.1782,1340.6593406593406,,0,-1,1768785849.1201782
1768785849127.9907,1346.5201465201465,,0,-1,1768785849.1279907
1768785849135.8032,1353.113553113553,,0,-1,1768785849.1358032
1768785849143.6155,1358.241758241758,,0,-1,1768785849.1436155
1768785849151.4282,1358.974358974359,,0,-1,1768785849.1514282
1768785849159.2407,1359.7069597069597,,0,-1,1768785849.1592407
1768785849167.0532,1362.6373626373625,,0,-1,1768785849.1670532
1768785849174.8655,1369.230769230769,,0,-1,1768785849.1748655
1768785849182.6782,1375.8241758241757,,0,-1,1768785849.1826782
1768785849190.4907,1378.021978021978,,0,-1,1768785849.1904907
1768785849198.3032,1378.7545787545787,,0,-1,1768785849.1983032
1768785849206.1155,1380.952380952381,,0,-1,1768785849.2061155
1768785849213.9282,1383.150183150183,,0,-1,1768785849.2139282
1768785849221.7407,1383.150183150183,,0,-1,1768785849.2217407
1768785849229.5532,1380.2197802197802,,0,-1,1768785849.2295532
1768785849237.3655,1375.8241758241757,,0,-1,1768785849.2373655
1768785849245.1782,1370.6959706959706,,0,-1,1768785849.2451782
1768785849252.9907,1360.4395604395604,,0,-1,1768785849.2529907
1768785849260.8032,1351.6483516483515,,0,-1,1768785849.2608032
1768785849268.6155,1345.7875457875457,,0,-1,1768785849.2686155
1768785849276.4282,1339.92673992674,,0,-1,1768785849.2764282
1768785849284.2407,1336.9963369963368,,0,-1,1768785849.2842407
1768785849292.0532,1334.065934065934,,0,-1,1768785849.2920532
1768785849299.8655,1331.135531135531,,0,-1,1768785849.2998655
1768785849307.6782,1329.6703296703297,,0,-1,1768785849.3076782
1768785849315.4907,1331.8681318681315,,0,-1,1768785849.3154907
1768785849323.3032,1330.4029304029302,,0,-1,1768785849.3233032
1768785849331.1155,1326.739926739927,,0,-1,1768785849.3311155
1768785849338.9282,1326.739926739927,,0,-1,1768785849.3389282
1768785849346.7407,1327.4725274725274,,0,-1,1768785849.3467407
1768785849354.5532,1333.3333333333333,,0,-1,1768785849.3545532
1768785849362.3655,1341.3919413919414,,0,-1,1768785849.3623655
1768785849370.1782,1353.8461538461538,,0,-1,1768785849.3701782
1768785849377.9907,1367.032967032967,,0,-1,1768785849.3779907
1768785849385.8032,1379.4871794871794,,0,-1,1768785849.3858032
1768785849393.6155,1386.080586080586,,0,-1,1768785849.3936155
1768785849401.4282,1385.3479853479853,,0,-1,1768785849.4014282
1768785849409.2407,1388.278388278388,,0,-1,1768785849.4092407
1768785849417.0532,1395.6043956043954,,0,-1,1768785849.4170532
1768785849424.8655,1406.5934065934066,,0,-1,1768785849.4248655
1768785849432.6782,1418.3150183150185,,0,-1,1768785849.4326782
1768785849440.4907,1430.03663003663,,0,-1,1768785849.4404907
1768785849448.3032,1441.7582417582416,,0,-1,1768785849.4483032
1768785849456.1155,1456.4102564102564,,0,-1,1768785849.4561155
1768785849463.9282,1471.062271062271,,0,-1,1768785849.4639282
1768785849471.7407,1482.7838827838827,,0,-1,1768785849.4717407
1768785849479.5532,1490.8424908424906,,0,-1,1768785849.4795532
1768785849487.3655,1496.7032967032967,,0,-1,1768785849.4873655
1768785849495.1782,1501.8315018315018,,0,-1,1768785849.4951782
1768785849502.9907,1504.0293040293038,,0,-1,1768785849.5029907
1768785849510.8032,1505.4945054945051,,0,-1,1768785849.5108032
1768785849518.6155,1503.2967032967033,,0,-1,1768785849.5186155
1768785849526.4282,1500.3663003663005,,0,-1,1768785849.5264282
1768785849534.2407,1495.2380952380952,,0,-1,1768785849.5342407
1768785849542.0532,1498.9010989010987,,0,-1,1768785849.5420532
1768785849549.8655,1498.168498168498,,0,-1,1768785849.5498655
1768785849557.6782,1496.7032967032967,,0,-1,1768785849.5576782
1768785849565.4907,1496.7032967032967,,0,-1,1768785849.5654907
1768785849573.3032,1496.7032967032967,,0,-1,1768785849.5733032
1768785849581.1155,1495.970695970696,,0,-1,1768785849.5811155
1768785849588.9282,1490.10989010989,,0,-1,1768785849.5889282
1768785849596.7407,1483.5164835164835,,0,-1,1768785849.5967407
1768785849604.5532,1478.3882783882782,,0,-1,1768785849.6045532
1768785849612.3655,1473.992673992674,,0,-1,1768785849.6123655
1768785849620.1782,1468.8644688644688,,0,-1,1768785849.6201782
1768785849627.9907,1464.4688644688645,,0,-1,1768785849.6279907
1768785849635.8032,1460.805860805861,,0,-1,1768785849.6358032
1768785849643.6155,1458.6080586080584,,0,-1,1768785849.6436155
1768785849651.4282,1458.6080586080584,,0,-1,1768785849.6514282
1768785849659.2407,1458.6080586080584,,0,-1,1768785849.6592407
1768785849667.0532,1458.6080586080584,,0,-1,1768785849.6670532
1768785849674.8655,1460.805860805861,,0,-1,1768785849.6748655
1768785849682.6782,1460.805860805861,,0,-1,1768785849.6826782
1768785849690.4907,1457.875457875458,,0,-1,1768785849.6904907
1768785849698.3032,1455.6776556776556,,0,-1,1768785849.6983032
1768785849706.1155,1453.479853479853,,0,-1,1768785849.7061155
1768785849713.9282,1449.8168498168498,,0,-1,1768785849.7139282
1768785849721.7407,1448.3516483516482,,0,-1,1768785849.7217407
1768785849729.5532,1444.688644688645,,0,-1,1768785849.7295532
1768785849737.3655,1441.0256410256409,,0,-1,1768785849.7373655
1768785849745.1782,1439.5604395604394,,0,-1,1768785849.7451782
1768785849752.9907,1439.5604395604394,,0,-1,1768785849.7529907
1768785849760.8032,1438.8278388278388,,0,-1,1768785849.7608032
1768785849768.6155,1436.6300366300366,,0,-1,1768785849.7686155
1768785849776.4282,1433.6996336996335,,0,-1,1768785849.7764282
1768785849784.2407,1428.5714285714284,,0,-1,1768785849.7842407
1768785849792.0532,1424.9084249084249,,0,-1,1768785849.7920532
1768785849799.8655,1421.245421245421,,0,-1,1768785849.7998655
1768785849807.6782,1420.5128205128203,,0,-1,1768785849.8076782
1768785849815.4907,1422.7106227106226,,0,-1,1768785849.8154907
1768785849823.3032,1428.5714285714284,,0,-1,1768785849.8233032
1768785849831.1155,1432.2344322344322,,0,-1,1768785849.8311155
1768785849838.9282,1427.8388278388277,,0,-1,1768785849.8389282
1768785849846.7407,1421.9780219780218,,0,-1,1768785849.8467407
1768785849854.5532,1412.4542124542124,,0,-1,1768785849.8545532
1768785849862.3655,1404.3956043956043,,0,-1,1768785849.8623655
1768785849870.1782,1397.069597069597,,0,-1,1768785849.8701782
1768785849877.9907,1390.4761904761904,,0,-1,1768785849.8779907
1768785849885.8032,1385.3479853479853,,0,-1,1768785849.8858032
1768785849893.6155,1380.2197802197802,,0,-1,1768785849.8936155
1768785849901.4282,1378.7545787545787,,0,-1,1768785849.9014282
1768785849909.2407,1380.2197802197802,,0,-1,1768785849.9092407
1768785849917.0532,1382.4175824175825,,0,-1,1768785849.9170532
1768785849924.8655,1384.6153846153843,,0,-1,1768785849.9248655
1768785849932.6782,1388.278388278388,,0,-1,1768785849.9326782
1768785849940.4907,1395.6043956043954,,0,-1,1768785849.9404907
1768785849948.3032,1404.3956043956043,,0,-1,1768785849.9483032
1768785849956.1155,1412.4542124542124,,0,-1,1768785849.9561155
1768785849963.9282,1419.7802197802198,,0,-1,1768785849.9639282
1768785849971.7407,1423.4432234432234,,0,-1,1768785849.9717407
1768785849979.5532,1425.6410256410256,,0,-1,1768785849.9795532
1768785849987.3655,1425.6410256410256,,0,-1,1768785849.9873655
1768785849995.1782,1427.8388278388277,,0,-1,1768785849.9951782
1768785850002.9907,1427.8388278388277,,0,-1,1768785850.0029907
1768785850010.8032,1421.9780219780218,,0,-1,1768785850.0108032
1768785850018.6155,1412.4542124542124,,0,-1,1768785850.0186155
1768785850026.4282,1406.5934065934066,,0,-1,1768785850.0264282
1768785850034.2407,1410.2564102564102,,0,-1,1768785850.0342407
1768785850042.0532,1413.9194139194135,,0,-1,1768785850.0420532
1768785850049.8655,1416.117216117216,,0,-1,1768785850.0498655
1768785850057.6782,1413.1868131868132,,0,-1,1768785850.0576782
1768785850065.4907,1411.7216117216117,,0,-1,1768785850.0654907
1768785850073.3032,1408.7912087912086,,0,-1,1768785850.0733032
1768785850081.1155,1404.3956043956043,,0,-1,1768785850.0811155
1768785850088.9282,1399.2673992673992,,0,-1,1768785850.0889282
1768785850096.7407,1393.4065934065934,,0,-1,1768785850.0967407
1768785850104.5532,1384.6153846153843,,0,-1,1768785850.1045532
1768785850112.3655,1375.8241758241757,,0,-1,1768785850.1123655
1768785850120.1782,1368.4981684981683,,0,-1,1768785850.1201782
1768785850127.9907,1361.1721611721612,,0,-1,1768785850.1279907
1768785850135.8032,1352.3809523809523,,0,-1,1768785850.1358032
1768785850143.6155,1342.857142857143,,0,-1,1768785850.1436155
1768785850151.4282,1330.4029304029302,,0,-1,1768785850.1514282
1768785850159.2407,1316.4835164835165,,0,-1,1768785850.1592407
1768785850167.0532,1301.8315018315018,,0,-1,1768785850.1670532
1768785850174.8655,1288.6446886446886,,0,-1,1768785850.1748655
1768785850182.6782,1278.3882783882782,,0,-1,1768785850.1826782
1768785850190.4907,1268.8644688644688,,0,-1,1768785850.1904907
1768785850198.3032,1257.875457875458,,0,-1,1768785850.1983032
1768785850206.1155,1246.8864468864467,,0,-1,1768785850.2061155
1768785850213.9282,1236.6300366300366,,0,-1,1768785850.2139282
1768785850221.7407,1221.245421245421,,0,-1,1768785850.2217407
1768785850229.5532,1202.9304029304028,,0,-1,1768785850.2295532
1768785850237.3655,1185.3479853479853,,0,-1,1768785850.2373655
1768785850245.1782,1164.8351648351647,,0,-1,1768785850.2451782
1768785850252.9907,1144.3223443223442,,0,-1,1768785850.2529907
1768785850260.8032,1123.076923076923,,0,-1,1768785850.2608032
1768785850268.6155,1102.5641025641023,,0,-1,1768785850.2686155
1768785850276.4282,1082.7838827838827,,0,-1,1768785850.2764282
1768785850284.2407,1071.062271062271,,0,-1,1768785850.2842407
1768785850292.0532,1068.8644688644688,,0,-1,1768785850.2920532
1768785850299.8655,1076.190476190476,,0,-1,1768785850.2998655
1768785850307.6782,1091.5750915750914,,0,-1,1768785850.3076782
1768785850315.4907,1112.087912087912,,0,-1,1768785850.3154907
1768785850323.3032,1134.065934065934,,0,-1,1768785850.3233032
1768785850331.1155,1155.311355311355,,0,-1,1768785850.3311155
1768785850338.9282,1167.7655677655678,,0,-1,1768785850.3389282
1768785850346.7407,1176.5567765567764,,0,-1,1768785850.3467407
1768785850354.5532,1180.952380952381,,0,-1,1768785850.3545532
1768785850362.3655,1180.952380952381,,0,-1,1768785850.3623655
1768785850370.1782,1175.8241758241757,,0,-1,1768785850.3701782
1768785850377.9907,1166.3003663003662,,0,-1,1768785850.3779907
1768785850385.8032,1153.8461538461538,,0,-1,1768785850.3858032
1768785850393.6155,1139.92673992674,,0,-1,1768785850.3936155
1768785850401.4282,1124.5421245421244,,0,-1,1768785850.4014282
1768785850409.2407,1108.4249084249084,,0,-1,1768785850.4092407
1768785850417.0532,1093.040293040293,,0,-1,1768785850.4170532
1768785850424.8655,1082.7838827838827,,0,-1,1768785850.4248655
1768785850432.6782,1079.8534798534797,,0,-1,1768785850.4326782
1768785850440.4907,1081.3186813186812,,0,-1,1768785850.4404907
1768785850448.3032,1090.8424908424909,,0,-1,1768785850.4483032
1768785850456.1155,1109.1575091575091,,0,-1,1768785850.4561155
1768785850463.9282,1131.8681318681315,,0,-1,1768785850.4639282
1768785850471.7407,1157.5091575091574,,0,-1,1768785850.4717407
1768785850479.5532,1182.4175824175825,,0,-1,1768785850.4795532
1768785850487.3655,1208.7912087912086,,0,-1,1768785850.4873655
1768785850495.1782,1231.5018315018317,,0,-1,1768785850.4951782
1768785850502.9907,1252.014652014652,,0,-1,1768785850.5029907
1768785850510.8032,1271.7948717948716,,0,-1,1768785850.5108032
1768785850518.6155,1290.10989010989,,0,-1,1768785850.5186155
1768785850526.4282,1309.89010989011,,0,-1,1768785850.5264282
1768785850534.2407,1326.739926739927,,0,-1,1768785850.5342407
1768785850542.0532,1342.857142857143,,0,-1,1768785850.5420532
1768785850549.8655,1352.3809523809523,,0,-1,1768785850.5498655
1768785850557.6782,1356.043956043956,,0,-1,1768785850.5576782
1768785850565.4907,1354.5787545787546,,0,-1,1768785850.5654907
1768785850573.3032,1344.3223443223442,,0,-1,1768785850.5733032
1768785850581.1155,1329.6703296703297,,0,-1,1768785850.5811155
1768785850588.9282,1310.6227106227104,,0,-1,1768785850.5889282
1768785850596.7407,1290.8424908424909,,0,-1,1768785850.5967407
1768785850604.5532,1272.5274725274724,,0,-1,1768785850.6045532
1768785850612.3655,1259.3406593406592,,0,-1,1768785850.6123655
1768785850620.1782,1249.084249084249,,0,-1,1768785850.6201782
1768785850627.9907,1245.4212454212454,,0,-1,1768785850.6279907
1768785850635.8032,1246.153846153846,,0,-1,1768785850.6358032
1768785850643.6155,1246.153846153846,,0,-1,1768785850.6436155
1768785850651.4282,1248.3516483516482,,0,-1,1768785850.6514282
1768785850659.2407,1252.014652014652,,0,-1,1768785850.6592407
1768785850667.0532,1257.142857142857,,0,-1,1768785850.6670532
1768785850674.8655,1263.7362637362637,,0,-1,1768785850.6748655
1768785850682.6782,1273.260073260073,,0,-1,1768785850.6826782
1768785850690.4907,1282.7838827838827,,0,-1,1768785850.6904907
1768785850698.3032,1291.5750915750914,,0,-1,1768785850.6983032
1768785850706.1155,1304.0293040293038,,0,-1,1768785850.7061155
1768785850713.9282,1319.4139194139193,,0,-1,1768785850.7139282
1768785850721.7407,1334.065934065934,,0,-1,1768785850.7217407
1768785850729.5532,1347.2527472527472,,0,-1,1768785850.7295532
1768785850737.3655,1357.5091575091574,,0,-1,1768785850.7373655
1768785850745.1782,1368.4981684981683,,0,-1,1768785850.7451782
1768785850752.9907,1375.8241758241757,,0,-1,1768785850.7529907
1768785850760.8032,1379.4871794871794,,0,-1,1768785850.7608032
1768785850768.6155,1379.4871794871794,,0,-1,1768785850.7686155
1768785850776.4282,1380.952380952381,,0,-1,1768785850.7764282
1768785850784.2407,1383.150183150183,,0,-1,1768785850.7842407
1768785850792.0532,1383.8827838827838,,0,-1,1768785850.7920532
1768785850799.8655,1387.5457875457876,,0,-1,1768785850.7998655
1768785850807.6782,1396.3369963369962,,0,-1,1768785850.8076782
1768785850815.4907,1408.058608058608,,0,-1,1768785850.8154907
1768785850823.3032,1420.5128205128203,,0,-1,1768785850.8233032
1768785850831.1155,1431.5018315018317,,0,-1,1768785850.8311155
1768785850838.9282,1438.095238095238,,0,-1,1768785850.8389282
1768785850846.7407,1442.4908424908424,,0,-1,1768785850.8467407
1768785850854.5532,1445.4212454212454,,0,-1,1768785850.8545532
1768785850862.3655,1446.153846153846,,0,-1,1768785850.8623655
1768785850870.1782,1440.29304029304,,0,-1,1768785850.8701782
1768785850877.9907,1434.4322344322345,,0,-1,1768785850.8779907
1768785850885.8032,1430.03663003663,,0,-1,1768785850.8858032
1768785850893.6155,1421.9780219780218,,0,-1,1768785850.8936155
1768785850901.4282,1415.3846153846152,,0,-1,1768785850.9014282
1768785850909.2407,1409.5238095238094,,0,-1,1768785850.9092407
1768785850917.0532,1402.9304029304028,,0,-1,1768785850.9170532
1768785850924.8655,1397.069597069597,,0,-1,1768785850.9248655
1768785850932.6782,1391.941391941392,,0,-1,1768785850.9326782
1768785850940.4907,1389.0109890109889,,0,-1,1768785850.9404907
1768785850948.3032,1387.5457875457876,,0,-1,1768785850.9483032
1768785850956.1155,1390.4761904761904,,0,-1,1768785850.9561155
1768785850963.9282,1391.2087912087911,,0,-1,1768785850.9639282
1768785850971.7407,1394.139194139194,,0,-1,1768785850.9717407
1768785850979.5532,1397.8021978021975,,0,-1,1768785850.9795532
1768785850987.3655,1397.069597069597,,0,-1,1768785850.9873655
1768785850995.1782,1396.3369963369962,,0,-1,1768785850.9951782
1768785851002.9907,1394.8717948717947,,0,-1,1768785851.0029907
1768785851010.8032,1393.4065934065934,,0,-1,1768785851.0108032
1768785851018.6155,1393.4065934065934,,0,-1,1768785851.0186155
1768785851026.4282,1397.069597069597,,0,-1,1768785851.0264282
1768785851034.2407,1403.6630036630036,,0,-1,1768785851.0342407
1768785851042.0532,1408.7912087912086,,0,-1,1768785851.0420532
1768785851049.8655,1411.7216117216117,,1,4,1768785851.0498655
1768785851057.6782,1414.6520146520145,,1,4,1768785851.0576782
1768785851065.4907,1414.6520146520145,,1,4,1768785851.0654907
1768785851073.3032,1417.5824175824175,,1,4,1768785851.0733032
1768785851081.1155,1417.5824175824175,,1,4,1768785851.0811155
1768785851088.9282,1416.117216117216,,1,4,1768785851.0889282
1768785851096.7407,1410.989010989011,,1,4,1768785851.0967407
1768785851104.5532,1405.128205128205,,1,4,1768785851.1045532
1768785851112.3655,1397.069597069597,,1,4,1768785851.1123655
1768785851120.1782,1388.278388278388,,1,4,1768785851.1201782
1768785851127.9907,1382.4175824175825,,1,4,1768785851.1279907
1768785851135.8032,1372.8937728937728,,1,4,1768785851.1358032
1768785851143.6155,1366.3003663003662,,1,4,1768785851.1436155
1768785851151.4282,1362.6373626373625,,1,4,1768785851.1514282
1768785851159.2407,1358.974358974359,,1,4,1768785851.1592407
1768785851167.0532,1356.043956043956,,1,4,1768785851.1670532
1768785851174.8655,1356.7765567765566,,1,4,1768785851.1748655
1768785851182.6782,1362.6373626373625,,1,4,1768785851.1826782
1768785851190.4907,1369.9633699633698,,1,4,1768785851.1904907
1768785851198.3032,1382.4175824175825,,1,4,1768785851.1983032
1768785851206.1155,1397.069597069597,,1,4,1768785851.2061155
1768785851213.9282,1414.6520146520145,,1,4,1768785851.2139282
1768785851221.7407,1432.9670329670328,,1,4,1768785851.2217407
1768785851229.5532,1451.2820512820513,,1,4,1768785851.2295532
1768785851237.3655,1473.260073260073,,1,4,1768785851.2373655
1768785851245.1782,1497.4358974358972,,1,4,1768785851.2451782
1768785851252.9907,1520.14652014652,,1,4,1768785851.2529907
1768785851260.8032,1538.4615384615383,,1,4,1768785851.2608032
1768785851268.6155,1553.8461538461538,,1,4,1768785851.2686155
1768785851276.4282,1565.5677655677655,,1,4,1768785851.2764282
1768785851284.2407,1574.3589743589744,,1,4,1768785851.2842407
1768785851292.0532,1583.8827838827838,,1,4,1768785851.2920532
1768785851299.8655,1589.0109890109889,,1,4,1768785851.2998655
1768785851307.6782,1590.4761904761904,,1,4,1768785851.3076782
1768785851315.4907,1582.4175824175825,,1,4,1768785851.3154907
1768785851323.3032,1574.3589743589744,,1,4,1768785851.3233032
1768785851331.1155,1564.8351648351647,,1,4,1768785851.3311155
1768785851338.9282,1558.241758241758,,1,4,1768785851.3389282
1768785851346.7407,1556.043956043956,,1,4,1768785851.3467407
1768785851354.5532,1553.113553113553,,1,4,1768785851.3545532
1768785851362.3655,1550.9157509157508,,1,4,1768785851.3623655
1768785851370.1782,1550.18315018315,,1,4,1768785851.3701782
1768785851377.9907,1547.985347985348,,1,4,1768785851.3779907
1768785851385.8032,1545.7875457875457,,1,4,1768785851.3858032
1768785851393.6155,1542.857142857143,,1,4,1768785851.3936155
1768785851401.4282,1540.6593406593406,,1,4,1768785851.4014282
1768785851409.2407,1538.4615384615383,,1,4,1768785851.4092407
1768785851417.0532,1534.065934065934,,1,4,1768785851.4170532
1768785851424.8655,1529.6703296703297,,1,4,1768785851.4248655
1768785851432.6782,1526.007326007326,,1,4,1768785851.4326782
1768785851440.4907,1521.6117216117216,,1,4,1768785851.4404907
1768785851448.3032,1516.4835164835165,,1,4,1768785851.4483032
1768785851456.1155,1510.6227106227104,,1,4,1768785851.4561155
1768785851463.9282,1504.0293040293038,,1,4,1768785851.4639282
1768785851471.7407,1499.6336996336995,,1,4,1768785851.4717407
1768785851479.5532,1488.6446886446886,,1,4,1768785851.4795532
1768785851487.3655,1477.6556776556777,,1,4,1768785851.4873655
1768785851495.1782,1472.5274725274724,,1,4,1768785851.4951782
1768785851502.9907,1470.3296703296703,,1,4,1768785851.5029907
1768785851510.8032,1468.8644688644688,,1,4,1768785851.5108032
1768785851518.6155,1473.992673992674,,1,4,1768785851.5186155
1768785851526.4282,1477.6556776556777,,1,4,1768785851.5264282
1768785851534.2407,1479.8534798534797,,1,4,1768785851.5342407
1768785851542.0532,1479.120879120879,,1,4,1768785851.5420532
1768785851549.8655,1478.3882783882782,,1,4,1768785851.5498655
1768785851557.6782,1472.5274725274724,,1,4,1768785851.5576782
1768785851565.4907,1466.6666666666663,,1,4,1768785851.5654907
1768785851573.3032,1461.5384615384614,,1,4,1768785851.5733032
1768785851581.1155,1457.142857142857,,1,4,1768785851.5811155
1768785851588.9282,1454.212454212454,,1,4,1768785851.5889282
1768785851596.7407,1452.014652014652,,1,4,1768785851.5967407
1768785851604.5532,1449.084249084249,,1,4,1768785851.6045532
1768785851612.3655,1446.8864468864467,,1,4,1768785851.6123655
1768785851620.1782,1443.956043956044,,1,4,1768785851.6201782
1768785851627.9907,1441.7582417582416,,1,4,1768785851.6279907
1768785851635.8032,1439.5604395604394,,1,4,1768785851.6358032
1768785851643.6155,1436.6300366300366,,1,4,1768785851.6436155
1768785851651.4282,1432.9670329670328,,1,4,1768785851.6514282
1768785851659.2407,1430.7692307692307,,1,4,1768785851.6592407
1768785851667.0532,1429.3040293040292,,1,4,1768785851.6670532
1768785851674.8655,1429.3040293040292,,1,4,1768785851.6748655
1768785851682.6782,1427.8388278388277,,1,4,1768785851.6826782
1768785851690.4907,1426.3736263736262,,1,4,1768785851.6904907
1768785851698.3032,1426.3736263736262,,1,4,1768785851.6983032
1768785851706.1155,1427.8388278388277,,1,4,1768785851.7061155
1768785851713.9282,1429.3040293040292,,1,4,1768785851.7139282
1768785851721.7407,1432.2344322344322,,1,4,1768785851.7217407
1768785851729.5532,1435.8974358974358,,1,4,1768785851.7295532
1768785851737.3655,1438.095238095238,,1,4,1768785851.7373655
1768785851745.1782,1439.5604395604394,,1,4,1768785851.7451782
1768785851752.9907,1439.5604395604394,,1,4,1768785851.7529907
1768785851760.8032,1438.095238095238,,1,4,1768785851.7608032
1768785851768.6155,1432.9670329670328,,1,4,1768785851.7686155
1768785851776.4282,1430.03663003663,,1,4,1768785851.7764282
1768785851784.2407,1426.3736263736262,,1,4,1768785851.7842407
1768785851792.0532,1422.7106227106226,,1,4,1768785851.7920532
1768785851799.8655,1419.047619047619,,1,4,1768785851.7998655
1768785851807.6782,1413.1868131868132,,1,4,1768785851.8076782
1768785851815.4907,1404.3956043956043,,1,4,1768785851.8154907
1768785851823.3032,1397.8021978021975,,1,4,1768785851.8233032
1768785851831.1155,1392.6739926739926,,1,4,1768785851.8311155
1768785851838.9282,1389.7435897435896,,1,4,1768785851.8389282
1768785851846.7407,1385.3479853479853,,1,4,1768785851.8467407
1768785851854.5532,1378.7545787545787,,1,4,1768785851.8545532
1768785851862.3655,1375.091575091575,,1,4,1768785851.8623655
1768785851870.1782,1373.6263736263736,,1,4,1768785851.8701782
1768785851877.9907,1371.428571428571,,1,4,1768785851.8779907
1768785851885.8032,1369.9633699633698,,1,4,1768785851.8858032
1768785851893.6155,1368.4981684981683,,1,4,1768785851.8936155
1768785851901.4282,1367.032967032967,,1,4,1768785851.9014282
1768785851909.2407,1367.032967032967,,1,4,1768785851.9092407
1768785851917.0532,1366.3003663003662,,1,4,1768785851.9170532
1768785851924.8655,1362.6373626373625,,1,4,1768785851.9248655
1768785851932.6782,1363.3699633699632,,1,4,1768785851.9326782
1768785851940.4907,1366.3003663003662,,1,4,1768785851.9404907
1768785851948.3032,1369.9633699633698,,1,4,1768785851.9483032
1768785851956.1155,1369.230769230769,,1,4,1768785851.9561155
1768785851963.9282,1367.032967032967,,1,4,1768785851.9639282
1768785851971.7407,1365.5677655677655,,1,4,1768785851.9717407
1768785851979.5532,1364.8351648351647,,1,4,1768785851.9795532
1768785851987.3655,1363.3699633699632,,1,4,1768785851.9873655
1768785851995.1782,1363.3699633699632,,1,4,1768785851.9951782
1768785852002.9907,1359.7069597069597,,1,4,1768785852.0029907
1768785852010.8032,1356.7765567765566,,1,4,1768785852.0108032
1768785852018.6155,1352.3809523809523,,1,4,1768785852.0186155
1768785852026.4282,1348.7179487179487,,1,4,1768785852.0264282
1768785852034.2407,1345.054945054945,,1,4,1768785852.0342407
1768785852042.0532,1342.857142857143,,1,4,1768785852.0420532
1768785852049.8655,1342.857142857143,,1,4,1768785852.0498655
1768785852057.6782,1346.5201465201465,,1,4,1768785852.0576782
1768785852065.4907,1350.18315018315,,1,4,1768785852.0654907
1768785852073.3032,1356.043956043956,,1,4,1768785852.0733032
1768785852081.1155,1364.102564102564,,1,4,1768785852.0811155
1768785852088.9282,1376.5567765567764,,1,4,1768785852.0889282
1768785852096.7407,1389.0109890109889,,1,4,1768785852.0967407
1768785852104.5532,1401.4652014652013,,1,4,1768785852.1045532
1768785852112.3655,1413.9194139194135,,1,4,1768785852.1123655
1768785852120.1782,1427.8388278388277,,1,4,1768785852.1201782
1768785852127.9907,1445.4212454212454,,1,4,1768785852.1279907
1768785852135.8032,1460.07326007326,,1,4,1768785852.1358032
1768785852143.6155,1470.3296703296703,,1,4,1768785852.1436155
1768785852151.4282,1473.992673992674,,1,4,1768785852.1514282
1768785852159.2407,1478.3882783882782,,1,4,1768785852.1592407
1768785852167.0532,1482.051282051282,,1,4,1768785852.1670532
1768785852174.8655,1485.7142857142856,,1,4,1768785852.1748655
1768785852182.6782,1490.8424908424906,,1,4,1768785852.1826782
1768785852190.4907,1493.7728937728937,,1,4,1768785852.1904907
1768785852198.3032,1493.7728937728937,,1,4,1768785852.1983032
1768785852206.1155,1494.5054945054944,,1,4,1768785852.2061155
1768785852213.9282,1499.6336996336995,,1,4,1768785852.2139282
1768785852221.7407,1504.7619047619046,,1,4,1768785852.2217407
1768785852229.5532,1505.4945054945051,,1,4,1768785852.2295532
1768785852237.3655,1507.6923076923076,,1,4,1768785852.2373655
1768785852245.1782,1509.1575091575091,,1,4,1768785852.2451782
1768785852252.9907,1503.2967032967033,,1,4,1768785852.2529907
1768785852260.8032,1491.5750915750914,,1,4,1768785852.2608032
1768785852268.6155,1479.120879120879,,1,4,1768785852.2686155
1768785852276.4282,1469.5970695970695,,1,4,1768785852.2764282
1768785852284.2407,1460.07326007326,,1,4,1768785852.2842407
1768785852292.0532,1452.014652014652,,1,4,1768785852.2920532
1768785852299.8655,1449.084249084249,,1,4,1768785852.2998655
1768785852307.6782,1449.084249084249,,1,4,1768785852.3076782
1768785852315.4907,1447.6190476190477,,1,4,1768785852.3154907
1768785852323.3032,1443.2234432234432,,1,4,1768785852.3233032
1768785852331.1155,1437.362637362637,,1,4,1768785852.3311155
1768785852338.9282,1430.7692307692307,,1,4,1768785852.3389282
1768785852346.7407,1427.106227106227,,1,4,1768785852.3467407
1768785852354.5532,1423.4432234432234,,1,4,1768785852.3545532
1768785852362.3655,1419.047619047619,,1,4,1768785852.3623655
1768785852370.1782,1413.1868131868132,,1,4,1768785852.3701782
1768785852377.9907,1410.989010989011,,1,4,1768785852.3779907
1768785852385.8032,1415.3846153846152,,1,4,1768785852.3858032
1768785852393.6155,1417.5824175824175,,1,4,1768785852.3936155
1768785852401.4282,1420.5128205128203,,1,4,1768785852.4014282
1768785852409.2407,1426.3736263736262,,1,4,1768785852.4092407
1768785852417.0532,1428.5714285714284,,1,4,1768785852.4170532
1768785852424.8655,1427.106227106227,,1,4,1768785852.4248655
1768785852432.6782,1429.3040293040292,,1,4,1768785852.4326782
1768785852440.4907,1427.106227106227,,1,4,1768785852.4404907
1768785852448.3032,1421.9780219780218,,1,4,1768785852.4483032
1768785852456.1155,1418.3150183150185,,1,4,1768785852.4561155
1768785852463.9282,1415.3846153846152,,1,4,1768785852.4639282
1768785852471.7407,1410.2564102564102,,1,4,1768785852.4717407
1768785852479.5532,1402.197802197802,,1,4,1768785852.4795532
1768785852487.3655,1394.8717948717947,,1,4,1768785852.4873655
1768785852495.1782,1385.3479853479853,,1,4,1768785852.4951782
1768785852502.9907,1377.2893772893772,,1,4,1768785852.5029907
1768785852510.8032,1376.5567765567764,,1,4,1768785852.5108032
1768785852518.6155,1379.4871794871794,,1,4,1768785852.5186155
1768785852526.4282,1383.150183150183,,1,4,1768785852.5264282
1768785852534.2407,1388.278388278388,,1,4,1768785852.5342407
1768785852542.0532,1399.2673992673992,,1,4,1768785852.5420532
1768785852549.8655,1410.989010989011,,1,4,1768785852.5498655
1768785852557.6782,1419.047619047619,,1,4,1768785852.5576782
1768785852565.4907,1422.7106227106226,,1,4,1768785852.5654907
1768785852573.3032,1421.245421245421,,1,4,1768785852.5733032
1768785852581.1155,1419.047619047619,,1,4,1768785852.5811155
1768785852588.9282,1414.6520146520145,,1,4,1768785852.5889282
1768785852596.7407,1402.9304029304028,,1,4,1768785852.5967407
1768785852604.5532,1394.8717948717947,,1,4,1768785852.6045532
1768785852612.3655,1383.150183150183,,1,4,1768785852.6123655
1768785852620.1782,1369.9633699633698,,1,4,1768785852.6201782
1768785852627.9907,1360.4395604395604,,1,4,1768785852.6279907
1768785852635.8032,1354.5787545787546,,0,-1,1768785852.6358032
1768785852643.6155,1350.9157509157508,,0,-1,1768785852.6436155
1768785852651.4282,1356.043956043956,,0,-1,1768785852.6514282
1768785852659.2407,1361.1721611721612,,0,-1,1768785852.6592407
1768785852667.0532,1363.3699633699632,,0,-1,1768785852.6670532
1768785852674.8655,1369.230769230769,,0,-1,1768785852.6748655
1768785852682.6782,1372.161172161172,,0,-1,1768785852.6826782
1768785852690.4907,1372.161172161172,,0,-1,1768785852.6904907
1768785852698.3032,1371.428571428571,,0,-1,1768785852.6983032
1768785852706.1155,1370.6959706959706,,0,-1,1768785852.7061155
1768785852713.9282,1362.6373626373625,,0,-1,1768785852.7139282
1768785852721.7407,1355.311355311355,,0,-1,1768785852.7217407
1768785852729.5532,1345.7875457875457,,0,-1,1768785852.7295532
1768785852737.3655,1335.5311355311355,,0,-1,1768785852.7373655
1768785852745.1782,1331.135531135531,,0,-1,1768785852.7451782
1768785852752.9907,1332.6007326007325,,0,-1,1768785852.7529907
1768785852760.8032,1335.5311355311355,,0,-1,1768785852.7608032
1768785852768.6155,1335.5311355311355,,0,-1,1768785852.7686155
1768785852776.4282,1336.263736263736,,0,-1,1768785852.7764282
1768785852784.2407,1340.6593406593406,,0,-1,1768785852.7842407
1768785852792.0532,1346.5201465201465,,0,-1,1768785852.7920532
1768785852799.8655,1350.9157509157508,,0,-1,1768785852.7998655
1768785852807.6782,1350.9157509157508,,0,-1,1768785852.8076782
1768785852815.4907,1348.7179487179487,,0,-1,1768785852.8154907
1768785852823.3032,1345.054945054945,,0,-1,1768785852.8233032
1768785852831.1155,1334.065934065934,,0,-1,1768785852.8311155
1768785852838.9282,1326.007326007326,,0,-1,1768785852.8389282
1768785852846.7407,1323.076923076923,,0,-1,1768785852.8467407
1768785852854.5532,1326.007326007326,,0,-1,1768785852.8545532
1768785852862.3655,1328.2051282051282,,0,-1,1768785852.8623655
1768785852870.1782,1328.2051282051282,,0,-1,1768785852.8701782
1768785852877.9907,1328.937728937729,,0,-1,1768785852.8779907
1768785852885.8032,1331.135531135531,,0,-1,1768785852.8858032
1768785852893.6155,1334.065934065934,,0,-1,1768785852.8936155
1768785852901.4282,1337.7289377289376,,0,-1,1768785852.9014282
1768785852909.2407,1339.92673992674,,0,-1,1768785852.9092407
1768785852917.0532,1343.5897435897434,,0,-1,1768785852.9170532
1768785852924.8655,1350.9157509157508,,0,-1,1768785852.9248655
1768785852932.6782,1360.4395604395604,,0,-1,1768785852.9326782
1768785852940.4907,1375.091575091575,,0,-1,1768785852.9404907
1768785852948.3032,1391.941391941392,,0,-1,1768785852.9483032
1768785852956.1155,1407.3260073260071,,0,-1,1768785852.9561155
1768785852963.9282,1421.9780219780218,,0,-1,1768785852.9639282
1768785852971.7407,1433.6996336996335,,0,-1,1768785852.9717407
1768785852979.5532,1443.2234432234432,,0,-1,1768785852.9795532
1768785852987.3655,1452.014652014652,,0,-1,1768785852.9873655
1768785852995.1782,1458.6080586080584,,0,-1,1768785852.9951782
1768785853002.9907,1463.7362637362637,,0,-1,1768785853.0029907
1768785853010.8032,1465.201465201465,,0,-1,1768785853.0108032
1768785853018.6155,1466.6666666666663,,0,-1,1768785853.0186155
1768785853026.4282,1466.6666666666663,,0,-1,1768785853.0264282
1768785853034.2407,1468.131868131868,,0,-1,1768785853.0342407
1768785853042.0532,1463.7362637362637,,0,-1,1768785853.0420532
1768785853049.8655,1462.2710622710622,,0,-1,1768785853.0498655
1768785853057.6782,1464.4688644688645,,0,-1,1768785853.0576782
1768785853065.4907,1465.9340659340658,,0,-1,1768785853.0654907
1768785853073.3032,1461.5384615384614,,0,-1,1768785853.0733032
1768785853081.1155,1460.805860805861,,0,-1,1768785853.0811155
1768785853088.9282,1462.2710622710622,,0,-1,1768785853.0889282
1768785853096.7407,1464.4688644688645,,0,-1,1768785853.0967407
1768785853104.5532,1464.4688644688645,,0,-1,1768785853.1045532
1768785853112.3655,1463.003663003663,,0,-1,1768785853.1123655
1768785853120.1782,1460.805860805861,,0,-1,1768785853.1201782
1768785853127.9907,1459.3406593406592,,0,-1,1768785853.1279907
1768785853135.8032,1457.142857142857,,0,-1,1768785853.1358032
1768785853143.6155,1452.014652014652,,0,-1,1768785853.1436155
1768785853151.4282,1444.688644688645,,0,-1,1768785853.1514282
1768785853159.2407,1437.362637362637,,0,-1,1768785853.1592407
1768785853167.0532,1431.5018315018317,,0,-1,1768785853.1670532
1768785853174.8655,1427.106227106227,,0,-1,1768785853.1748655
1768785853182.6782,1422.7106227106226,,0,-1,1768785853.1826782
1768785853190.4907,1417.5824175824175,,0,-1,1768785853.1904907
1768785853198.3032,1409.5238095238094,,0,-1,1768785853.1983032
1768785853206.1155,1402.9304029304028,,0,-1,1768785853.2061155
1768785853213.9282,1397.8021978021975,,0,-1,1768785853.2139282
1768785853221.7407,1396.3369963369962,,0,-1,1768785853.2217407
1768785853229.5532,1398.5347985347985,,0,-1,1768785853.2295532
1768785853237.3655,1402.197802197802,,0,-1,1768785853.2373655
1768785853245.1782,1405.128205128205,,0,-1,1768785853.2451782
1768785853252.9907,1406.5934065934066,,0,-1,1768785853.2529907
1768785853260.8032,1406.5934065934066,,0,-1,1768785853.2608032
1768785853268.6155,1400.0,,0,-1,1768785853.2686155
1768785853276.4282,1388.278388278388,,0,-1,1768785853.2764282
1768785853284.2407,1381.6849816849815,,0,-1,1768785853.2842407
1768785853292.0532,1383.8827838827838,,0,-1,1768785853.2920532
1768785853299.8655,1391.941391941392,,0,-1,1768785853.2998655
1768785853307.6782,1398.5347985347985,,0,-1,1768785853.3076782
1768785853315.4907,1400.7326007326003,,0,-1,1768785853.3154907
1768785853323.3032,1403.6630036630036,,0,-1,1768785853.3233032
1768785853331.1155,1406.5934065934066,,0,-1,1768785853.3311155
1768785853338.9282,1403.6630036630036,,0,-1,1768785853.3389282
1768785853346.7407,1398.5347985347985,,0,-1,1768785853.3467407
1768785853354.5532,1394.8717948717947,,0,-1,1768785853.3545532
1768785853362.3655,1388.278388278388,,0,-1,1768785853.3623655
1768785853370.1782,1381.6849816849815,,0,-1,1768785853.3701782
1768785853377.9907,1371.428571428571,,0,-1,1768785853.3779907
1768785853385.8032,1361.904761904762,,0,-1,1768785853.3858032
1768785853393.6155,1355.311355311355,,0,-1,1768785853.3936155
1768785853401.4282,1348.7179487179487,,0,-1,1768785853.4014282
1768785853409.2407,1346.5201465201465,,0,-1,1768785853.4092407
1768785853417.0532,1345.054945054945,,0,-1,1768785853.4170532
1768785853424.8655,1347.2527472527472,,0,-1,1768785853.4248655
1768785853432.6782,1350.18315018315,,0,-1,1768785853.4326782
1768785853440.4907,1351.6483516483515,,0,-1,1768785853.4404907
1768785853448.3032,1350.18315018315,,0,-1,1768785853.4483032
1768785853456.1155,1345.7875457875457,,0,-1,1768785853.4561155
1768785853463.9282,1340.6593406593406,,0,-1,1768785853.4639282
1768785853471.7407,1336.263736263736,,0,-1,1768785853.4717407
1768785853479.5532,1336.9963369963368,,0,-1,1768785853.4795532
1768785853487.3655,1339.194139194139,,0,-1,1768785853.4873655
1768785853495.1782,1342.124542124542,,0,-1,1768785853.4951782
1768785853502.9907,1345.054945054945,,0,-1,1768785853.5029907
1768785853510.8032,1348.7179487179487,,0,-1,1768785853.5108032
1768785853518.6155,1356.043956043956,,0,-1,1768785853.5186155
1768785853526.4282,1361.904761904762,,0,-1,1768785853.5264282
1768785853534.2407,1361.904761904762,,0,-1,1768785853.5342407
1768785853542.0532,1361.904761904762,,0,-1,1768785853.5420532
1768785853549.8655,1360.4395604395604,,0,-1,1768785853.5498655
1768785853557.6782,1358.241758241758,,0,-1,1768785853.5576782
1768785853565.4907,1354.5787545787546,,0,-1,1768785853.5654907
1768785853573.3032,1355.311355311355,,0,-1,1768785853.5733032
1768785853581.1462,1357.5091575091574,,0,-1,1768785853.5811462
1768785853588.9282,1364.102564102564,,0,-1,1768785853.5889282
1768785853596.7407,1366.3003663003662,,0,-1,1768785853.5967407
1768785853604.5532,1362.6373626373625,,0,-1,1768785853.6045532
1768785853612.3655,1356.043956043956,,0,-1,1768785853.6123655
1768785853620.1782,1350.18315018315,,0,-1,1768785853.6201782
1768785853627.9907,1344.3223443223442,,0,-1,1768785853.6279907
1768785853635.8032,1334.065934065934,,0,-1,1768785853.6358032
1768785853643.6155,1320.14652014652,,0,-1,1768785853.6436155
1768785853651.4282,1312.8205128205127,,0,-1,1768785853.6514282
1768785853659.2407,1312.087912087912,,0,-1,1768785853.6592407
1768785853667.0532,1307.6923076923076,,0,-1,1768785853.6670532
1768785853674.8655,1303.2967032967033,,0,-1,1768785853.6748655
1768785853682.6782,1301.8315018315018,,0,-1,1768785853.6826782
1768785853690.4907,1304.0293040293038,,0,-1,1768785853.6904907
1768785853698.3032,1304.7619047619046,,0,-1,1768785853.6983032
1768785853706.1155,1310.6227106227104,,0,-1,1768785853.7061155
1768785853713.9282,1317.9487179487178,,0,-1,1768785853.7139282
1768785853721.7407,1319.4139194139193,,0,-1,1768785853.7217407
1768785853729.5532,1317.216117216117,,0,-1,1768785853.7295532
1768785853737.3655,1316.4835164835165,,0,-1,1768785853.7373655
1768785853745.1782,1319.4139194139193,,0,-1,1768785853.7451782
1768785853752.9907,1326.007326007326,,0,-1,1768785853.7529907
1768785853760.8032,1336.263736263736,,0,-1,1768785853.7608032
1768785853768.6155,1352.3809523809523,,0,-1,1768785853.7686155
1768785853776.4282,1368.4981684981683,,0,-1,1768785853.7764282
1768785853784.2407,1382.4175824175825,,0,-1,1768785853.7842407
1768785853792.0532,1397.069597069597,,0,-1,1768785853.7920532
1768785853799.8655,1407.3260073260071,,0,-1,1768785853.7998655
1768785853807.6782,1409.5238095238094,,0,-1,1768785853.8076782
1768785853815.4907,1410.989010989011,,0,-1,1768785853.8154907
1768785853823.3032,1411.7216117216117,,0,-1,1768785853.8233032
1768785853831.1155,1410.989010989011,,0,-1,1768785853.8311155
1768785853838.9282,1412.4542124542124,,0,-1,1768785853.8389282
1768785853846.7407,1411.7216117216117,,0,-1,1768785853.8467407
1768785853854.5532,1414.6520146520145,,0,-1,1768785853.8545532
