Shimmer_6815_Timestamp_Unix_CAL,Shimmer_6815_PPG_A13_CAL,Unnamed: 2,inhale,inhale_id,epoch_sec
1768785185684.204,29.304029304029303,,0,-1,1768785185.684204
1768785185692.0166,115.018315018315,,0,-1,1768785185.6920166
1768785185699.829,226.3736263736264,,0,-1,1768785185.699829
1768785185707.6416,345.05494505494505,,0,-1,1768785185.7076416
1768785185715.454,462.2710622710623,,0,-1,1768785185.715454
1768785185723.2666,572.8937728937728,,0,-1,1768785185.7232666
1768785185731.079,673.992673992674,,0,-1,1768785185.731079
1768785185738.8916,765.5677655677655,,0,-1,1768785185.7388916
1768785185746.704,848.3516483516484,,0,-1,1768785185.746704
1768785185754.5166,920.8791208791208,,0,-1,1768785185.7545166
1768785185762.329,982.4175824175824,,0,-1,1768785185.762329
1768785185770.1416,1035.8974358974358,,0,-1,1768785185.7701416
1768785185777.954,1080.5860805860805,,0,-1,1768785185.777954
1768785185785.7666,1117.2161172161173,,0,-1,1768785185.7857666
1768785185793.579,1144.3223443223442,,0,-1,1768785185.793579
1768785185801.3916,1161.904761904762,,0,-1,1768785185.8013916
1768785185809.2346,1177.2893772893772,,0,-1,1768785185.8092346
1768785185817.0166,1186.080586080586,,0,-1,1768785185.8170166
1768785185824.829,1190.4761904761904,,0,-1,1768785185.824829
1768785185832.6416,1189.7435897435896,,0,-1,1768785185.8326416
1768785185840.454,1186.8131868131868,,0,-1,1768785185.840454
1768785185848.2666,1184.6153846153843,,0,-1,1768785185.8482666
1768785185856.079,1183.8827838827838,,0,-1,1768785185.856079
1768785185863.8916,1184.6153846153843,,0,-1,1768785185.8638916
1768785185871.704,1189.0109890109889,,0,-1,1768785185.871704
1768785185879.5166,1193.4065934065934,,0,-1,1768785185.8795166
1768785185887.329,1198.5347985347985,,0,-1,1768785185.887329
1768785185895.1416,1201.4652014652013,,0,-1,1768785185.8951416
1768785185902.954,1206.5934065934066,,0,-1,1768785185.902954
1768785185910.7666,1214.6520146520145,,0,-1,1768785185.9107666
1768785185918.579,1221.9780219780218,,0,-1,1768785185.918579
1768785185926.3916,1229.3040293040292,,0,-1,1768785185.9263916
1768785185934.204,1238.8278388278388,,0,-1,1768785185.934204
1768785185942.0166,1252.014652014652,,0,-1,1768785185.9420166
1768785185949.829,1260.07326007326,,0,-1,1768785185.949829
1768785185957.6416,1268.131868131868,,0,-1,1768785185.9576416
1768785185965.454,1265.9340659340658,,0,-1,1768785185.965454
1768785185973.2666,1262.2710622710622,,0,-1,1768785185.9732666
1768785185981.079,1263.003663003663,,0,-1,1768785185.981079
1768785185988.8916,1267.3992673992673,,0,-1,1768785185.9888916
1768785185996.704,1272.5274725274724,,0,-1,1768785185.996704
1768785186004.5166,1273.992673992674,,0,-1,1768785186.0045166
1768785186012.329,1275.4578754578754,,0,-1,1768785186.012329
1768785186020.1416,1277.6556776556777,,0,-1,1768785186.0201416
1768785186027.954,1282.7838827838827,,0,-1,1768785186.027954
1768785186035.7666,1286.4468864468863,,0,-1,1768785186.0357666
1768785186043.579,1287.179487179487,,0,-1,1768785186.043579
1768785186051.3916,1287.179487179487,,0,-1,1768785186.0513916
1768785186059.204,1291.5750915750914,,0,-1,1768785186.059204
1768785186067.0166,1296.7032967032967,,0,-1,1768785186.0670166
1768785186074.829,1301.8315018315018,,0,-1,1768785186.074829
1768785186082.6416,1305.4945054945051,,0,-1,1768785186.0826416
1768785186090.454,1309.89010989011,,0,-1,1768785186.090454
1768785186098.2666,1313.5531135531137,,0,-1,1768785186.0982666
1768785186106.079,1317.9487179487178,,0,-1,1768785186.106079
1768785186113.8916,1319.4139194139193,,0,-1,1768785186.1138916
1768785186121.704,1319.4139194139193,,0,-1,1768785186.121704
1768785186129.5166,1320.14652014652,,0,-1,1768785186.1295166
1768785186137.329,1315.7509157509155,,0,-1,1768785186.137329
1768785186145.1416,1310.6227106227104,,0,-1,1768785186.1451416
1768785186152.954,1306.9597069597069,,0,-1,1768785186.152954
1768785186160.7666,1304.7619047619046,,0,-1,1768785186.1607666
1768785186168.579,1301.8315018315018,,0,-1,1768785186.168579
1768785186176.3916,1301.098901098901,,0,-1,1768785186.1763916
1768785186184.204,1302.5641025641023,,0,-1,1768785186.184204
1768785186192.0166,1307.6923076923076,,0,-1,1768785186.1920166
1768785186199.829,1315.7509157509155,,0,-1,1768785186.199829
1768785186207.6416,1323.8095238095236,,0,-1,1768785186.2076416
1768785186215.454,1329.6703296703297,,0,-1,1768785186.215454
1768785186223.2666,1331.135531135531,,0,-1,1768785186.2232666
1768785186231.079,1328.937728937729,,0,-1,1768785186.231079
1768785186238.8916,1326.007326007326,,0,-1,1768785186.2388916
1768785186246.704,1321.6117216117216,,0,-1,1768785186.246704
1768785186254.5166,1316.4835164835165,,0,-1,1768785186.2545166
1768785186262.329,1313.5531135531137,,0,-1,1768785186.262329
1768785186270.1416,1312.8205128205127,,0,-1,1768785186.2701416
1768785186277.954,1308.4249084249084,,0,-1,1768785186.277954
1768785186285.7666,1298.168498168498,,0,-1,1768785186.2857666
1768785186293.579,1289.3772893772891,,0,-1,1768785186.293579
1768785186301.3916,1282.051282051282,,0,-1,1768785186.3013916
1768785186309.204,1276.923076923077,,0,-1,1768785186.309204
1768785186317.0166,1275.4578754578754,,0,-1,1768785186.3170166
1768785186324.829,1273.260073260073,,0,-1,1768785186.324829
1768785186332.6416,1268.8644688644688,,0,-1,1768785186.3326416
1768785186340.454,1265.9340659340658,,0,-1,1768785186.340454
1768785186348.2666,1267.3992673992673,,0,-1,1768785186.3482666
1768785186356.079,1268.131868131868,,0,-1,1768785186.356079
1768785186363.8916,1269.5970695970695,,0,-1,1768785186.3638916
1768785186371.704,1272.5274725274724,,0,-1,1768785186.371704
1768785186379.5166,1275.4578754578754,,0,-1,1768785186.3795166
1768785186387.329,1276.923076923077,,0,-1,1768785186.387329
1768785186395.1416,1276.190476190476,,0,-1,1768785186.3951416
1768785186402.954,1273.260073260073,,0,-1,1768785186.402954
1768785186410.7666,1273.260073260073,,0,-1,1768785186.4107666
1768785186418.579,1273.992673992674,,0,-1,1768785186.418579
1768785186426.3916,1273.992673992674,,0,-1,1768785186.4263916
1768785186434.204,1270.3296703296703,,0,-1,1768785186.434204
1768785186442.0166,1267.3992673992673,,0,-1,1768785186.4420166
1768785186449.829,1268.131868131868,,0,-1,1768785186.449829
1768785186457.6416,1268.8644688644688,,0,-1,1768785186.4576416
1768785186465.454,1268.131868131868,,0,-1,1768785186.465454
1768785186473.2666,1272.5274725274724,,0,-1,1768785186.4732666
1768785186481.079,1279.120879120879,,0,-1,1768785186.481079
1768785186488.8916,1284.9816849816848,,0,-1,1768785186.4888916
1768785186496.704,1290.8424908424909,,0,-1,1768785186.496704
1768785186504.5166,1293.7728937728937,,0,-1,1768785186.5045166
1768785186512.329,1293.040293040293,,0,-1,1768785186.512329
1768785186520.1416,1292.3076923076922,,0,-1,1768785186.5201416
1768785186527.954,1291.5750915750914,,0,-1,1768785186.527954
1768785186535.7666,1293.040293040293,,0,-1,1768785186.5357666
1768785186543.579,1292.3076923076922,,0,-1,1768785186.543579
1768785186551.3916,1295.970695970696,,0,-1,1768785186.5513916
1768785186559.204,1301.098901098901,,0,-1,1768785186.559204
1768785186567.0166,1302.5641025641023,,0,-1,1768785186.5670166
1768785186574.829,1300.3663003663005,,0,-1,1768785186.574829
1768785186582.6416,1302.5641025641023,,0,-1,1768785186.5826416
1768785186590.454,1303.2967032967033,,0,-1,1768785186.590454
1768785186598.2666,1301.8315018315018,,0,-1,1768785186.5982666
1768785186606.079,1304.0293040293038,,0,-1,1768785186.606079
1768785186613.8916,1303.2967032967033,,0,-1,1768785186.6138916
1768785186621.704,1300.3663003663005,,0,-1,1768785186.621704
1768785186629.5166,1299.6336996336995,,0,-1,1768785186.6295166
1768785186637.329,1299.6336996336995,,0,-1,1768785186.637329
1768785186645.1416,1295.2380952380952,,0,-1,1768785186.6451416
1768785186652.954,1288.6446886446886,,0,-1,1768785186.652954
1768785186660.7666,1284.2490842490845,,0,-1,1768785186.6607666
1768785186668.579,1282.051282051282,,0,-1,1768785186.668579
1768785186676.3916,1271.7948717948716,,0,-1,1768785186.6763916
1768785186684.204,1263.003663003663,,0,-1,1768785186.684204
1768785186692.0166,1257.875457875458,,0,-1,1768785186.6920166
1768785186699.829,1249.084249084249,,0,-1,1768785186.699829
1768785186707.6416,1245.4212454212454,,0,-1,1768785186.7076416
1768785186715.454,1245.4212454212454,,0,-1,1768785186.715454
1768785186723.2666,1243.956043956044,,0,-1,1768785186.7232666
1768785186731.079,1249.8168498168498,,0,-1,1768785186.731079
1768785186738.8916,1253.479853479853,,0,-1,1768785186.7388916
1768785186746.704,1258.6080586080586,,0,-1,1768785186.746704
1768785186754.5166,1262.2710622710622,,0,-1,1768785186.7545166
1768785186762.329,1265.9340659340658,,0,-1,1768785186.762329
1768785186770.1416,1273.260073260073,,0,-1,1768785186.7701416
1768785186777.954,1276.190476190476,,0,-1,1768785186.777954
1768785186785.7666,1281.3186813186812,,0,-1,1768785186.7857666
1768785186793.579,1290.8424908424909,,0,-1,1768785186.793579
1768785186801.3916,1297.4358974358977,,0,-1,1768785186.8013916
1768785186809.204,1306.227106227106,,0,-1,1768785186.809204
1768785186817.0166,1320.8791208791208,,0,-1,1768785186.8170166
1768785186824.829,1330.4029304029302,,0,-1,1768785186.824829
1768785186832.6416,1343.5897435897434,,0,-1,1768785186.8326416
1768785186840.454,1355.311355311355,,0,-1,1768785186.840454
1768785186848.2666,1367.032967032967,,0,-1,1768785186.8482666
1768785186856.079,1377.2893772893772,,0,-1,1768785186.856079
1768785186863.8916,1381.6849816849815,,0,-1,1768785186.8638916
1768785186871.704,1382.4175824175825,,0,-1,1768785186.871704
1768785186879.5166,1385.3479853479853,,0,-1,1768785186.8795166
1768785186887.329,1378.021978021978,,0,-1,1768785186.887329
1768785186895.1416,1372.8937728937728,,0,-1,1768785186.8951416
1768785186902.954,1363.3699633699632,,0,-1,1768785186.902954
1768785186910.7666,1355.311355311355,,0,-1,1768785186.9107666
1768785186918.579,1353.8461538461538,,0,-1,1768785186.918579
1768785186926.3916,1346.5201465201465,,0,-1,1768785186.9263916
1768785186934.204,1344.3223443223442,,0,-1,1768785186.934204
1768785186942.0166,1339.92673992674,,0,-1,1768785186.9420166
1768785186949.829,1336.9963369963368,,0,-1,1768785186.949829
1768785186957.6416,1334.7985347985348,,0,-1,1768785186.9576416
1768785186965.454,1335.5311355311355,,0,-1,1768785186.965454
1768785186973.2666,1342.124542124542,,0,-1,1768785186.9732666
1768785186981.079,1345.054945054945,,0,-1,1768785186.981079
1768785186988.8916,1351.6483516483515,,0,-1,1768785186.9888916
1768785186996.704,1352.3809523809523,,0,-1,1768785186.996704
1768785187004.5166,1356.7765567765566,,0,-1,1768785187.0045166
1768785187012.329,1353.8461538461538,,0,-1,1768785187.012329
1768785187020.1416,1356.7765567765566,,0,-1,1768785187.0201416
1768785187027.954,1354.5787545787546,,0,-1,1768785187.027954
1768785187035.7666,1356.043956043956,,0,-1,1768785187.0357666
1768785187043.579,1353.113553113553,,0,-1,1768785187.043579
1768785187051.3916,1353.113553113553,,0,-1,1768785187.0513916
1768785187059.204,1350.18315018315,,0,-1,1768785187.059204
1768785187067.0166,1343.5897435897434,,0,-1,1768785187.0670166
1768785187074.829,1342.124542124542,,0,-1,1768785187.074829
1768785187082.6416,1339.92673992674,,0,-1,1768785187.0826416
1768785187090.454,1336.9963369963368,,0,-1,1768785187.090454
1768785187098.2666,1336.263736263736,,0,-1,1768785187.0982666
1768785187106.079,1339.92673992674,,0,-1,1768785187.106079
1768785187113.8916,1340.6593406593406,,0,-1,1768785187.1138916
1768785187121.704,1345.7875457875457,,0,-1,1768785187.121704
1768785187129.5166,1352.3809523809523,,0,-1,1768785187.1295166
1768785187137.329,1358.241758241758,,0,-1,1768785187.137329
1768785187145.1416,1361.904761904762,,0,-1,1768785187.1451416
1768785187152.954,1365.5677655677655,,0,-1,1768785187.152954
1768785187160.7666,1367.7655677655678,,0,-1,1768785187.1607666
1768785187168.579,1370.6959706959706,,0,-1,1768785187.168579
1768785187176.3916,1369.9633699633698,,0,-1,1768785187.1763916
1768785187184.204,1373.6263736263736,,0,-1,1768785187.184204
1768785187192.0166,1369.230769230769,,0,-1,1768785187.1920166
1768785187199.829,1367.032967032967,,0,-1,1768785187.199829
1768785187207.6416,1356.7765567765566,,1,1,1768785187.2076416
1768785187215.454,1350.9157509157508,,1,1,1768785187.215454
1768785187223.2666,1345.054945054945,,1,1,1768785187.2232666
1768785187231.079,1343.5897435897434,,1,1,1768785187.231079
1768785187238.8916,1336.263736263736,,1,1,1768785187.2388916
1768785187246.704,1327.4725274725274,,1,1,1768785187.246704
1768785187254.5166,1321.6117216117216,,1,1,1768785187.2545166
1768785187262.329,1314.2857142857142,,1,1,1768785187.262329
1768785187270.1416,1312.8205128205127,,1,1,1768785187.2701416
1768785187277.954,1306.9597069597069,,1,1,1768785187.277954
1768785187285.7666,1306.9597069597069,,1,1,1768785187.2857666
1768785187293.579,1309.89010989011,,1,1,1768785187.293579
1768785187301.3916,1309.89010989011,,1,1,1768785187.3013916
1768785187309.2346,1315.018315018315,,1,1,1768785187.3092346
1768785187317.0166,1317.9487179487178,,1,1,1768785187.3170166
1768785187324.829,1323.076923076923,,1,1,1768785187.324829
1768785187332.6416,1321.6117216117216,,1,1,1768785187.3326416
1768785187340.454,1324.5421245421244,,1,1,1768785187.340454
1768785187348.2666,1323.076923076923,,1,1,1768785187.3482666
1768785187356.079,1326.739926739927,,1,1,1768785187.356079
1768785187363.8916,1324.5421245421244,,1,1,1768785187.3638916
1768785187371.704,1328.937728937729,,1,1,1768785187.371704
1768785187379.5166,1325.2747252747251,,1,1,1768785187.3795166
1768785187387.329,1319.4139194139193,,1,1,1768785187.387329
1768785187395.1416,1315.018315018315,,1,1,1768785187.3951416
1768785187402.954,1309.1575091575091,,1,1,1768785187.402954
1768785187410.7666,1309.89010989011,,1,1,1768785187.4107666
1768785187418.579,1313.5531135531137,,1,1,1768785187.418579
1768785187426.3916,1315.7509157509155,,1,1,1768785187.4263916
1768785187434.204,1319.4139194139193,,1,1,1768785187.434204
1768785187442.0166,1315.7509157509155,,1,1,1768785187.4420166
1768785187449.829,1315.7509157509155,,1,1,1768785187.449829
1768785187457.6416,1312.8205128205127,,1,1,1768785187.4576416
1768785187465.454,1314.2857142857142,,1,1,1768785187.465454
1768785187473.2666,1312.8205128205127,,1,1,1768785187.4732666
1768785187481.079,1309.1575091575091,,1,1,1768785187.481079
1768785187488.8916,1309.89010989011,,1,1,1768785187.4888916
1768785187496.704,1308.4249084249084,,1,1,1768785187.496704
1768785187504.5166,1312.087912087912,,1,1,1768785187.5045166
1768785187512.329,1312.8205128205127,,1,1,1768785187.512329
1768785187520.1416,1314.2857142857142,,1,1,1768785187.5201416
1768785187527.954,1317.9487179487178,,1,1,1768785187.527954
1768785187535.7666,1320.8791208791208,,1,1,1768785187.5357666
1768785187543.579,1330.4029304029302,,1,1,1768785187.543579
1768785187551.3916,1338.4615384615383,,1,1,1768785187.5513916
1768785187559.204,1345.054945054945,,1,1,1768785187.559204
1768785187567.0166,1347.2527472527472,,1,1,1768785187.5670166
1768785187574.829,1353.8461538461538,,1,1,1768785187.574829
1768785187582.6416,1354.5787545787546,,1,1,1768785187.5826416
1768785187590.454,1361.904761904762,,1,1,1768785187.590454
1768785187598.2666,1364.8351648351647,,1,1,1768785187.5982666
1768785187606.079,1371.428571428571,,1,1,1768785187.606079
1768785187613.8916,1376.5567765567764,,1,1,1768785187.6138916
1768785187621.704,1384.6153846153843,,1,1,1768785187.621704
1768785187629.5166,1392.6739926739926,,1,1,1768785187.6295166
1768785187637.329,1397.8021978021975,,1,1,1768785187.637329
1768785187645.1416,1400.7326007326003,,1,1,1768785187.6451416
1768785187652.954,1391.941391941392,,1,1,1768785187.652954
1768785187660.7666,1385.3479853479853,,1,1,1768785187.6607666
1768785187668.579,1371.428571428571,,1,1,1768785187.668579
1768785187676.3916,1363.3699633699632,,1,1,1768785187.6763916
1768785187684.204,1355.311355311355,,1,1,1768785187.684204
1768785187692.0166,1358.241758241758,,1,1,1768785187.6920166
1768785187699.829,1364.102564102564,,1,1,1768785187.699829
1768785187707.6416,1377.2893772893772,,1,1,1768785187.7076416
1768785187715.454,1389.7435897435896,,1,1,1768785187.715454
1768785187723.2666,1409.5238095238094,,1,1,1768785187.7232666
1768785187731.079,1425.6410256410256,,1,1,1768785187.731079
1768785187738.8916,1445.4212454212454,,1,1,1768785187.7388916
1768785187746.704,1462.2710622710622,,1,1,1768785187.746704
1768785187754.5166,1482.7838827838827,,1,1,1768785187.7545166
1768785187762.329,1499.6336996336995,,1,1,1768785187.762329
1768785187770.1416,1512.8205128205127,,1,1,1768785187.7701416
1768785187777.954,1521.6117216117216,,1,1,1768785187.777954
1768785187785.7666,1531.135531135531,,1,1,1768785187.7857666
1768785187793.579,1536.263736263736,,1,1,1768785187.793579
1768785187801.3916,1548.7179487179485,,1,1,1768785187.8013916
1768785187809.204,1556.7765567765566,,1,1,1768785187.809204
1768785187817.0166,1564.102564102564,,1,1,1768785187.8170166
1768785187824.829,1567.032967032967,,1,1,1768785187.824829
1768785187832.6416,1567.032967032967,,1,1,1768785187.8326416
1768785187840.454,1561.1721611721612,,1,1,1768785187.840454
1768785187848.2666,1558.974358974359,,1,1,1768785187.8482666
1768785187856.079,1551.6483516483515,,1,1,1768785187.856079
1768785187863.8916,1550.9157509157508,,1,1,1768785187.8638916
1768785187871.704,1544.3223443223442,,1,1,1768785187.871704
1768785187879.5166,1542.857142857143,,1,1,1768785187.8795166
1768785187887.329,1537.7289377289376,,1,1,1768785187.887329
1768785187895.1416,1534.065934065934,,1,1,1768785187.8951416
1768785187902.954,1529.6703296703297,,1,1,1768785187.902954
1768785187910.7666,1523.0769230769229,,1,1,1768785187.9107666
1768785187918.579,1516.4835164835165,,1,1,1768785187.918579
1768785187926.3916,1508.4249084249084,,1,1,1768785187.9263916
1768785187934.204,1499.6336996336995,,1,1,1768785187.934204
1768785187942.0166,1492.3076923076922,,1,1,1768785187.9420166
1768785187949.829,1488.6446886446886,,1,1,1768785187.949829
1768785187957.6416,1475.4578754578754,,1,1,1768785187.9576416
1768785187965.454,1465.201465201465,,1,1,1768785187.965454
1768785187973.2666,1453.479853479853,,1,1,1768785187.9732666
1768785187981.079,1452.014652014652,,1,1,1768785187.981079
1768785187988.8916,1449.084249084249,,1,1,1768785187.9888916
1768785187996.704,1455.6776556776556,,1,1,1768785187.996704
1768785188004.5166,1462.2710622710622,,1,1,1768785188.0045166
1768785188012.329,1468.8644688644688,,1,1,1768785188.012329
1768785188020.1416,1471.062271062271,,1,1,1768785188.0201416
1768785188027.954,1474.7252747252746,,1,1,1768785188.027954
1768785188035.7666,1471.062271062271,,1,1,1768785188.0357666
1768785188043.579,1470.3296703296703,,1,1,1768785188.043579
1768785188051.3916,1463.7362637362637,,1,1,1768785188.0513916
1768785188059.204,1460.07326007326,,1,1,1768785188.059204
1768785188067.0166,1446.8864468864467,,1,1,1768785188.0670166
1768785188074.829,1438.8278388278388,,1,1,1768785188.074829
1768785188082.6416,1427.8388278388277,,1,1,1768785188.0826416
1768785188090.454,1419.7802197802198,,1,1,1768785188.090454
1768785188098.2666,1410.989010989011,,1,1,1768785188.0982666
1768785188106.079,1405.8608058608058,,1,1,1768785188.106079
1768785188113.8916,1409.5238095238094,,1,1,1768785188.1138916
1768785188121.704,1410.989010989011,,1,1,1768785188.121704
1768785188129.5166,1411.7216117216117,,1,1,1768785188.1295166
1768785188137.329,1413.1868131868132,,1,1,1768785188.137329
1768785188145.1416,1414.6520146520145,,1,1,1768785188.1451416
1768785188152.954,1416.117216117216,,1,1,1768785188.152954
1768785188160.7666,1412.4542124542124,,1,1,1768785188.1607666
1768785188168.579,1409.5238095238094,,1,1,1768785188.168579
1768785188176.3916,1400.0,,1,1,1768785188.1763916
1768785188184.204,1390.4761904761904,,1,1,1768785188.184204
1768785188192.0166,1383.150183150183,,1,1,1768785188.1920166
1768785188199.829,1374.3589743589744,,1,1,1768785188.199829
1768785188207.6416,1372.161172161172,,1,1,1768785188.2076416
1768785188215.454,1367.7655677655678,,1,1,1768785188.215454
1768785188223.2666,1367.7655677655678,,1,1,1768785188.2232666
1768785188231.079,1371.428571428571,,1,1,1768785188.231079
1768785188238.8916,1378.7545787545787,,1,1,1768785188.2388916
1768785188246.704,1387.5457875457876,,1,1,1768785188.246704
1768785188254.5166,1395.6043956043954,,1,1,1768785188.2545166
1768785188262.329,1404.3956043956043,,1,1,1768785188.262329
1768785188270.1416,1407.3260073260071,,1,1,1768785188.2701416
1768785188277.954,1412.4542124542124,,1,1,1768785188.277954
1768785188285.7666,1412.4542124542124,,1,1,1768785188.2857666
1768785188293.579,1413.9194139194135,,1,1,1768785188.293579
1768785188301.3916,1410.989010989011,,1,1,1768785188.3013916
1768785188309.204,1410.989010989011,,1,1,1768785188.309204
1768785188317.0166,1408.058608058608,,1,1,1768785188.3170166
1768785188324.829,1400.0,,1,1,1768785188.324829
1768785188332.6416,1395.6043956043954,,1,1,1768785188.3326416
1768785188340.454,1392.6739926739926,,1,1,1768785188.340454
1768785188348.2666,1389.0109890109889,,1,1,1768785188.3482666
1768785188356.079,1386.080586080586,,1,1,1768785188.356079
1768785188363.8916,1379.4871794871794,,1,1,1768785188.3638916
1768785188371.704,1374.3589743589744,,1,1,1768785188.371704
1768785188379.5166,1369.230769230769,,1,1,1768785188.3795166
1768785188387.329,1363.3699633699632,,1,1,1768785188.387329
1768785188395.1416,1355.311355311355,,1,1,1768785188.3951416
1768785188402.954,1350.9157509157508,,1,1,1768785188.402954
1768785188410.7666,1350.18315018315,,1,1,1768785188.4107666
1768785188418.579,1345.7875457875457,,1,1,1768785188.418579
1768785188426.3916,1342.857142857143,,1,1,1768785188.4263916
1768785188434.204,1336.9963369963368,,1,1,1768785188.434204
1768785188442.0166,1330.4029304029302,,1,1,1768785188.4420166
1768785188449.829,1326.739926739927,,1,1,1768785188.449829
1768785188457.6416,1320.14652014652,,1,1,1768785188.4576416
1768785188465.454,1322.3443223443223,,1,1,1768785188.465454
1768785188473.2666,1320.14652014652,,1,1,1768785188.4732666
1768785188481.079,1321.6117216117216,,1,1,1768785188.481079
1768785188488.8916,1320.14652014652,,1,1,1768785188.4888916
1768785188496.704,1315.018315018315,,1,1,1768785188.496704
1768785188504.5166,1309.89010989011,,1,1,1768785188.5045166
1768785188512.329,1302.5641025641023,,1,1,1768785188.512329
1768785188520.1416,1294.5054945054944,,1,1,1768785188.5201416
1768785188527.954,1281.3186813186812,,1,1,1768785188.527954
1768785188535.7666,1272.5274725274724,,1,1,1768785188.5357666
1768785188543.579,1266.6666666666663,,1,1,1768785188.543579
1768785188551.3916,1260.07326007326,,1,1,1768785188.5513916
1768785188559.204,1255.6776556776556,,1,1,1768785188.559204
1768785188567.0166,1258.6080586080586,,1,1,1768785188.5670166
1768785188574.829,1260.07326007326,,1,1,1768785188.574829
1768785188582.6416,1264.4688644688645,,1,1,1768785188.5826416
1768785188590.454,1275.4578754578754,,1,1,1768785188.590454
1768785188598.2666,1285.7142857142856,,1,1,1768785188.5982666
1768785188606.079,1295.970695970696,,1,1,1768785188.606079
1768785188613.8916,1308.4249084249084,,1,1,1768785188.6138916
1768785188621.704,1321.6117216117216,,1,1,1768785188.621704
1768785188629.5166,1333.3333333333333,,1,1,1768785188.6295166
1768785188637.329,1348.7179487179487,,1,1,1768785188.637329
1768785188645.1416,1362.6373626373625,,1,1,1768785188.6451416
1768785188652.954,1372.8937728937728,,1,1,1768785188.652954
1768785188660.7666,1384.6153846153843,,1,1,1768785188.6607666
1768785188668.579,1396.3369963369962,,1,1,1768785188.668579
1768785188676.3916,1397.069597069597,,1,1,1768785188.6763916
1768785188684.204,1401.4652014652013,,1,1,1768785188.684204
1768785188692.0166,1396.3369963369962,,1,1,1768785188.6920166
1768785188699.829,1394.8717948717947,,1,1,1768785188.699829
1768785188707.6416,1389.7435897435896,,1,1,1768785188.7076416
1768785188715.454,1380.2197802197802,,1,1,1768785188.715454
1768785188723.2666,1375.091575091575,,1,1,1768785188.7232666
1768785188731.079,1364.8351648351647,,1,1,1768785188.731079
1768785188738.8916,1359.7069597069597,,1,1,1768785188.7388916
1768785188746.704,1361.904761904762,,1,1,1768785188.746704
1768785188754.5166,1358.974358974359,,1,1,1768785188.7545166
1768785188762.329,1361.1721611721612,,1,1,1768785188.762329
1768785188770.1416,1361.904761904762,,1,1,1768785188.7701416
1768785188777.954,1364.102564102564,,1,1,1768785188.777954
1768785188785.7666,1367.032967032967,,1,1,1768785188.7857666
1768785188793.579,1364.8351648351647,,1,1,1768785188.793579
1768785188801.3916,1361.1721611721612,,1,1,1768785188.8013916
1768785188809.204,1358.241758241758,,1,1,1768785188.809204
1768785188817.0166,1350.18315018315,,1,1,1768785188.8170166
1768785188824.829,1343.5897435897434,,1,1,1768785188.824829
1768785188832.6416,1342.857142857143,,1,1,1768785188.8326416
1768785188840.454,1339.194139194139,,1,1,1768785188.840454
1768785188848.2666,1343.5897435897434,,1,1,1768785188.8482666
1768785188856.079,1346.5201465201465,,1,1,1768785188.856079
1768785188863.8916,1345.054945054945,,1,1,1768785188.8638916
1768785188871.704,1348.7179487179487,,1,1,1768785188.871704
1768785188879.5166,1347.985347985348,,1,1,1768785188.8795166
1768785188887.329,1348.7179487179487,,1,1,1768785188.887329
1768785188895.1416,1352.3809523809523,,1,1,1768785188.8951416
1768785188902.954,1348.7179487179487,,1,1,1768785188.902954
1768785188910.7666,1348.7179487179487,,1,1,1768785188.9107666
1768785188918.579,1339.92673992674,,1,1,1768785188.918579
1768785188926.3916,1326.739926739927,,1,1,1768785188.9263916
1768785188934.204,1316.4835164835165,,0,-1,1768785188.934204
1768785188942.0166,1301.8315018315018,,0,-1,1768785188.9420166
1768785188949.829,1295.970695970696,,0,-1,1768785188.949829
1768785188957.6416,1290.8424908424909,,0,-1,1768785188.9576416
1768785188965.454,1286.4468864468863,,0,-1,1768785188.965454
1768785188973.2666,1277.6556776556777,,0,-1,1768785188.9732666
1768785188981.079,1267.3992673992673,,0,-1,1768785188.981079
1768785188988.8916,1257.875457875458,,0,-1,1768785188.9888916
1768785188996.704,1250.5494505494505,,0,-1,1768785188.996704
1768785189004.5166,1252.014652014652,,0,-1,1768785189.0045166
1768785189012.329,1252.7472527472526,,0,-1,1768785189.012329
1768785189020.1416,1257.875457875458,,0,-1,1768785189.0201416
1768785189027.954,1263.003663003663,,0,-1,1768785189.027954
1768785189035.7666,1265.9340659340658,,0,-1,1768785189.0357666
1768785189043.579,1261.5384615384614,,0,-1,1768785189.043579
1768785189051.3916,1259.3406593406592,,0,-1,1768785189.0513916
1768785189059.204,1247.6190476190477,,0,-1,1768785189.059204
1768785189067.0166,1241.0256410256409,,0,-1,1768785189.0670166
1768785189074.829,1229.3040293040292,,0,-1,1768785189.074829
1768785189082.6416,1226.3736263736264,,0,-1,1768785189.0826416
1768785189090.454,1218.3150183150185,,0,-1,1768785189.090454
1768785189098.2666,1216.8498168498168,,0,-1,1768785189.0982666
1768785189106.079,1211.7216117216117,,0,-1,1768785189.106079
1768785189113.8916,1208.7912087912086,,0,-1,1768785189.1138916
1768785189121.704,1210.2564102564102,,0,-1,1768785189.121704
1768785189129.5166,1212.4542124542124,,0,-1,1768785189.1295166
1768785189137.329,1221.245421245421,,0,-1,1768785189.137329
1768785189145.1416,1227.106227106227,,0,-1,1768785189.1451416
1768785189152.954,1232.967032967033,,0,-1,1768785189.152954
1768785189160.7666,1235.8974358974358,,0,-1,1768785189.1607666
1768785189168.579,1240.29304029304,,0,-1,1768785189.168579
1768785189176.3916,1242.4908424908424,,0,-1,1768785189.1763916
1768785189184.204,1240.29304029304,,0,-1,1768785189.184204
1768785189192.0166,1239.5604395604396,,0,-1,1768785189.1920166
1768785189199.829,1233.6996336996335,,0,-1,1768785189.199829
1768785189207.6416,1233.6996336996335,,0,-1,1768785189.2076416
1768785189215.454,1234.4322344322345,,0,-1,1768785189.215454
1768785189223.2666,1238.095238095238,,0,-1,1768785189.2232666
1768785189231.079,1246.8864468864467,,0,-1,1768785189.231079
1768785189238.8916,1250.5494505494505,,0,-1,1768785189.2388916
1768785189246.704,1255.6776556776556,,0,-1,1768785189.246704
1768785189254.5166,1260.805860805861,,0,-1,1768785189.2545166
1768785189262.329,1262.2710622710622,,0,-1,1768785189.262329
1768785189270.1416,1268.8644688644688,,0,-1,1768785189.2701416
1768785189277.954,1268.131868131868,,0,-1,1768785189.277954
1768785189285.7666,1272.5274725274724,,0,-1,1768785189.2857666
1768785189293.579,1271.062271062271,,0,-1,1768785189.293579
1768785189301.3916,1267.3992673992673,,0,-1,1768785189.3013916
1768785189309.204,1265.9340659340658,,0,-1,1768785189.309204
1768785189317.0166,1255.6776556776556,,0,-1,1768785189.3170166
1768785189324.829,1250.5494505494505,,0,-1,1768785189.324829
1768785189332.6416,1243.956043956044,,0,-1,1768785189.3326416
1768785189340.454,1242.4908424908424,,0,-1,1768785189.340454
1768785189348.2666,1246.153846153846,,0,-1,1768785189.3482666
1768785189356.079,1244.688644688645,,0,-1,1768785189.356079
1768785189363.8916,1247.6190476190477,,0,-1,1768785189.3638916
1768785189371.704,1249.8168498168498,,0,-1,1768785189.371704
1768785189379.5166,1257.142857142857,,0,-1,1768785189.3795166
1768785189387.329,1264.4688644688645,,0,-1,1768785189.387329
1768785189395.1416,1280.5860805860805,,0,-1,1768785189.3951416
1768785189402.954,1293.7728937728937,,0,-1,1768785189.402954
1768785189410.7666,1314.2857142857142,,0,-1,1768785189.4107666
1768785189418.579,1328.937728937729,,0,-1,1768785189.418579
1768785189426.3916,1342.124542124542,,0,-1,1768785189.4263916
1768785189434.204,1352.3809523809523,,0,-1,1768785189.434204
1768785189442.0166,1356.043956043956,,0,-1,1768785189.4420166
1768785189449.829,1364.102564102564,,0,-1,1768785189.449829
1768785189457.6416,1372.161172161172,,0,-1,1768785189.4576416
1768785189465.454,1376.5567765567764,,0,-1,1768785189.465454
1768785189473.2666,1387.5457875457876,,0,-1,1768785189.4732666
1768785189481.079,1393.4065934065934,,0,-1,1768785189.481079
1768785189488.8916,1398.5347985347985,,0,-1,1768785189.4888916
1768785189496.704,1405.128205128205,,0,-1,1768785189.496704
1768785189504.5166,1411.7216117216117,,0,-1,1768785189.5045166
1768785189512.329,1416.8498168498168,,0,-1,1768785189.512329
1768785189520.1416,1425.6410256410256,,0,-1,1768785189.5201416
1768785189527.954,1438.095238095238,,0,-1,1768785189.527954
1768785189535.7666,1454.9450549450548,,0,-1,1768785189.5357666
1768785189543.579,1473.260073260073,,0,-1,1768785189.543579
1768785189551.3916,1487.9120879120878,,0,-1,1768785189.5513916
1768785189559.204,1498.9010989010987,,0,-1,1768785189.559204
1768785189567.0166,1508.4249084249084,,0,-1,1768785189.5670166
1768785189574.829,1512.8205128205127,,0,-1,1768785189.574829
1768785189582.6416,1510.6227106227104,,0,-1,1768785189.5826416
1768785189590.454,1506.9597069597069,,0,-1,1768785189.590454
1768785189598.2666,1503.2967032967033,,0,-1,1768785189.5982666
1768785189606.079,1498.168498168498,,0,-1,1768785189.606079
1768785189613.8916,1490.8424908424906,,0,-1,1768785189.6138916
1768785189621.704,1484.9816849816848,,0,-1,1768785189.621704
1768785189629.5166,1483.5164835164835,,0,-1,1768785189.6295166
1768785189637.329,1487.179487179487,,0,-1,1768785189.637329
1768785189645.1416,1488.6446886446886,,0,-1,1768785189.6451416
1768785189652.954,1487.179487179487,,0,-1,1768785189.652954
1768785189660.7666,1484.2490842490845,,0,-1,1768785189.6607666
1768785189668.579,1478.3882783882782,,0,-1,1768785189.668579
1768785189676.3916,1473.260073260073,,0,-1,1768785189.6763916
1768785189684.204,1465.201465201465,,0,-1,1768785189.684204
1768785189692.0166,1456.4102564102564,,0,-1,1768785189.6920166
1768785189699.829,1454.212454212454,,0,-1,1768785189.699829
1768785189707.6416,1449.8168498168498,,0,-1,1768785189.7076416
1768785189715.454,1452.014652014652,,0,-1,1768785189.715454
1768785189723.2666,1455.6776556776556,,0,-1,1768785189.7232666
1768785189731.079,1460.805860805861,,0,-1,1768785189.731079
1768785189738.8916,1466.6666666666663,,0,-1,1768785189.7388916
1768785189746.704,1466.6666666666663,,0,-1,1768785189.746704
1768785189754.5166,1472.5274725274724,,0,-1,1768785189.7545166
1768785189762.329,1474.7252747252746,,0,-1,1768785189.762329
1768785189770.1416,1475.4578754578754,,0,-1,1768785189.7701416
1768785189777.954,1479.120879120879,,0,-1,1768785189.777954
1768785189785.7666,1480.5860805860805,,0,-1,1768785189.7857666
1768785189793.579,1477.6556776556777,,0,-1,1768785189.793579
1768785189801.3916,1479.120879120879,,0,-1,1768785189.8013916
1768785189809.204,1471.7948717948716,,0,-1,1768785189.809204
1768785189817.0166,1463.003663003663,,0,-1,1768785189.8170166
1768785189824.829,1455.6776556776556,,0,-1,1768785189.824829
1768785189832.6416,1442.4908424908424,,0,-1,1768785189.8326416
1768785189840.454,1429.3040293040292,,0,-1,1768785189.840454
1768785189848.2666,1421.245421245421,,0,-1,1768785189.8482666
1768785189856.079,1410.989010989011,,0,-1,1768785189.856079
1768785189863.8916,1409.5238095238094,,0,-1,1768785189.8638916
1768785189871.704,1404.3956043956043,,0,-1,1768785189.871704
1768785189879.5166,1398.5347985347985,,0,-1,1768785189.8795166
1768785189887.329,1393.4065934065934,,0,-1,1768785189.887329
1768785189895.1416,1386.8131868131868,,0,-1,1768785189.8951416
1768785189902.954,1384.6153846153843,,0,-1,1768785189.902954
1768785189910.7666,1380.2197802197802,,0,-1,1768785189.9107666
1768785189918.579,1379.4871794871794,,0,-1,1768785189.918579
1768785189926.3916,1375.8241758241757,,0,-1,1768785189.9263916
1768785189934.204,1370.6959706959706,,0,-1,1768785189.934204
1768785189942.0166,1367.032967032967,,0,-1,1768785189.9420166
1768785189949.829,1364.8351648351647,,0,-1,1768785189.949829
1768785189957.6416,1365.5677655677655,,0,-1,1768785189.9576416
1768785189965.454,1360.4395604395604,,0,-1,1768785189.965454
1768785189973.2666,1358.974358974359,,0,-1,1768785189.9732666
1768785189981.079,1355.311355311355,,0,-1,1768785189.981079
1768785189988.8916,1353.113553113553,,0,-1,1768785189.9888916
1768785189996.704,1355.311355311355,,0,-1,1768785189.996704
1768785190004.5166,1353.113553113553,,0,-1,1768785190.0045166
1768785190012.329,1354.5787545787546,,0,-1,1768785190.012329
1768785190020.1416,1353.8461538461538,,0,-1,1768785190.0201416
1768785190027.954,1356.043956043956,,0,-1,1768785190.027954
1768785190035.7666,1362.6373626373625,,0,-1,1768785190.0357666
1768785190043.579,1367.032967032967,,0,-1,1768785190.043579
1768785190051.3916,1369.9633699633698,,0,-1,1768785190.0513916
1768785190059.204,1364.8351648351647,,0,-1,1768785190.059204
1768785190067.0166,1363.3699633699632,,0,-1,1768785190.0670166
1768785190074.829,1366.3003663003662,,0,-1,1768785190.074829
1768785190082.6416,1362.6373626373625,,0,-1,1768785190.0826416
1768785190090.454,1357.5091575091574,,0,-1,1768785190.090454
1768785190098.2666,1350.18315018315,,0,-1,1768785190.0982666
1768785190106.079,1344.3223443223442,,0,-1,1768785190.106079
1768785190113.8916,1346.5201465201465,,0,-1,1768785190.1138916
1768785190121.704,1342.857142857143,,0,-1,1768785190.121704
1768785190129.5166,1341.3919413919414,,0,-1,1768785190.1295166
1768785190137.329,1342.857142857143,,0,-1,1768785190.137329
1768785190145.1416,1342.124542124542,,0,-1,1768785190.1451416
1768785190152.954,1349.4505494505493,,0,-1,1768785190.152954
1768785190160.7666,1359.7069597069597,,0,-1,1768785190.1607666
1768785190168.579,1369.9633699633698,,0,-1,1768785190.168579
1768785190176.3916,1376.5567765567764,,0,-1,1768785190.1763916
1768785190184.204,1387.5457875457876,,0,-1,1768785190.184204
1768785190192.0166,1402.197802197802,,0,-1,1768785190.1920166
1768785190199.829,1419.047619047619,,0,-1,1768785190.199829
1768785190207.6416,1432.2344322344322,,0,-1,1768785190.2076416
1768785190215.454,1445.4212454212454,,0,-1,1768785190.215454
1768785190223.2666,1457.142857142857,,0,-1,1768785190.2232666
1768785190231.079,1460.07326007326,,0,-1,1768785190.231079
1768785190238.8916,1459.3406593406592,,0,-1,1768785190.2388916
1768785190246.704,1460.805860805861,,0,-1,1768785190.246704
1768785190254.5166,1464.4688644688645,,0,-1,1768785190.2545166
1768785190262.329,1465.201465201465,,0,-1,1768785190.262329
1768785190270.1416,1469.5970695970695,,0,-1,1768785190.2701416
1768785190277.954,1475.4578754578754,,0,-1,1768785190.277954
1768785190285.7666,1473.260073260073,,0,-1,1768785190.2857666
1768785190293.579,1475.4578754578754,,0,-1,1768785190.293579
1768785190301.3916,1481.3186813186812,,0,-1,1768785190.3013916
1768785190309.204,1484.9816849816848,,0,-1,1768785190.309204
1768785190317.0166,1486.4468864468863,,0,-1,1768785190.3170166
1768785190324.829,1481.3186813186812,,0,-1,1768785190.324829
1768785190332.6416,1476.923076923077,,0,-1,1768785190.3326416
1768785190340.454,1476.190476190476,,0,-1,1768785190.340454
1768785190348.2666,1476.190476190476,,0,-1,1768785190.3482666
1768785190356.079,1476.923076923077,,0,-1,1768785190.356079
1768785190363.8916,1482.7838827838827,,0,-1,1768785190.3638916
1768785190371.704,1483.5164835164835,,0,-1,1768785190.371704
1768785190379.5166,1484.9816849816848,,0,-1,1768785190.3795166
1768785190387.329,1486.4468864468863,,0,-1,1768785190.387329
1768785190395.1416,1479.8534798534797,,0,-1,1768785190.3951416
1768785190402.954,1469.5970695970695,,0,-1,1768785190.402954
1768785190410.7666,1457.875457875458,,0,-1,1768785190.4107666
1768785190418.579,1445.4212454212454,,0,-1,1768785190.418579
1768785190426.3916,1436.6300366300366,,0,-1,1768785190.4263916
1768785190434.204,1429.3040293040292,,0,-1,1768785190.434204
1768785190442.0166,1422.7106227106226,,0,-1,1768785190.4420166
1768785190449.829,1416.8498168498168,,0,-1,1768785190.449829
1768785190457.6416,1410.989010989011,,0,-1,1768785190.4576416
1768785190465.454,1406.5934065934066,,0,-1,1768785190.465454
1768785190473.2666,1403.6630036630036,,0,-1,1768785190.4732666
1768785190481.079,1398.5347985347985,,0,-1,1768785190.481079
1768785190488.8916,1396.3369963369962,,0,-1,1768785190.4888916
1768785190496.704,1397.8021978021975,,0,-1,1768785190.496704
1768785190504.5166,1400.7326007326003,,0,-1,1768785190.5045166
1768785190512.329,1402.9304029304028,,0,-1,1768785190.512329
1768785190520.1416,1402.197802197802,,0,-1,1768785190.5201416
1768785190527.954,1400.7326007326003,,0,-1,1768785190.527954
1768785190535.7666,1400.0,,0,-1,1768785190.5357666
1768785190543.579,1397.8021978021975,,0,-1,1768785190.543579
1768785190551.3916,1393.4065934065934,,0,-1,1768785190.5513916
1768785190559.204,1391.2087912087911,,0,-1,1768785190.559204
1768785190567.0166,1393.4065934065934,,0,-1,1768785190.5670166
1768785190574.829,1401.4652014652013,,0,-1,1768785190.574829
1768785190582.6416,1408.7912087912086,,0,-1,1768785190.5826416
1768785190590.454,1416.117216117216,,0,-1,1768785190.590454
1768785190598.2666,1422.7106227106226,,0,-1,1768785190.5982666
1768785190606.079,1430.03663003663,,0,-1,1768785190.606079
1768785190613.8916,1435.8974358974358,,0,-1,1768785190.6138916
1768785190621.704,1440.29304029304,,0,-1,1768785190.621704
1768785190629.5166,1440.29304029304,,0,-1,1768785190.6295166
1768785190637.329,1438.095238095238,,0,-1,1768785190.637329
1768785190645.1416,1434.4322344322345,,0,-1,1768785190.6451416
1768785190652.954,1427.106227106227,,0,-1,1768785190.652954
1768785190660.7666,1413.9194139194135,,0,-1,1768785190.6607666
1768785190668.579,1394.8717948717947,,0,-1,1768785190.668579
1768785190676.3916,1375.8241758241757,,0,-1,1768785190.6763916
1768785190684.204,1363.3699633699632,,0,-1,1768785190.684204
1768785190692.0166,1357.5091575091574,,0,-1,1768785190.6920166
1768785190699.829,1358.241758241758,,0,-1,1768785190.699829
1768785190707.6416,1362.6373626373625,,0,-1,1768785190.7076416
1768785190715.454,1365.5677655677655,,0,-1,1768785190.715454
1768785190723.2666,1371.428571428571,,0,-1,1768785190.7232666
1768785190731.079,1375.8241758241757,,0,-1,1768785190.731079
1768785190738.8916,1377.2893772893772,,0,-1,1768785190.7388916
1768785190746.704,1383.150183150183,,0,-1,1768785190.746704
1768785190754.5166,1382.4175824175825,,0,-1,1768785190.7545166
1768785190762.329,1382.4175824175825,,0,-1,1768785190.762329
1768785190770.1416,1381.6849816849815,,0,-1,1768785190.7701416
1768785190777.954,1378.021978021978,,0,-1,1768785190.777954
1768785190785.7666,1378.021978021978,,0,-1,1768785190.7857666
1768785190793.579,1378.7545787545787,,0,-1,1768785190.793579
1768785190801.3916,1384.6153846153843,,0,-1,1768785190.8013916
1768785190809.204,1394.139194139194,,0,-1,1768785190.809204
1768785190817.0166,1400.7326007326003,,0,-1,1768785190.8170166
1768785190824.829,1403.6630036630036,,0,-1,1768785190.824829
1768785190832.6416,1405.8608058608058,,0,-1,1768785190.8326416
1768785190840.454,1405.128205128205,,0,-1,1768785190.840454
1768785190848.2666,1405.128205128205,,0,-1,1768785190.8482666
1768785190856.079,1408.7912087912086,,0,-1,1768785190.856079
1768785190863.8916,1416.8498168498168,,0,-1,1768785190.8638916
1768785190871.704,1422.7106227106226,,1,2,1768785190.871704
1768785190879.5166,1424.175824175824,,1,2,1768785190.8795166
1768785190887.329,1424.175824175824,,1,2,1768785190.887329
1768785190895.1416,1425.6410256410256,,1,2,1768785190.8951416
1768785190902.954,1427.8388278388277,,1,2,1768785190.902954
1768785190910.7666,1426.3736263736262,,1,2,1768785190.9107666
1768785190918.579,1422.7106227106226,,1,2,1768785190.918579
1768785190926.3916,1419.047619047619,,1,2,1768785190.9263916
1768785190934.204,1417.5824175824175,,1,2,1768785190.934204
1768785190942.0166,1416.117216117216,,1,2,1768785190.9420166
1768785190949.829,1415.3846153846152,,1,2,1768785190.949829
1768785190957.6416,1421.245421245421,,1,2,1768785190.9576416
1768785190965.454,1435.164835164835,,1,2,1768785190.965454
1768785190973.2666,1449.084249084249,,1,2,1768785190.9732666
1768785190981.079,1460.07326007326,,1,2,1768785190.981079
1768785190988.8916,1471.062271062271,,1,2,1768785190.9888916
1768785190996.704,1483.5164835164835,,1,2,1768785190.996704
1768785191004.5166,1497.4358974358972,,1,2,1768785191.0045166
1768785191012.329,1509.89010989011,,1,2,1768785191.012329
1768785191020.1416,1521.6117216117216,,1,2,1768785191.0201416
1768785191027.954,1530.4029304029302,,1,2,1768785191.027954
1768785191035.7666,1536.9963369963368,,1,2,1768785191.0357666
1768785191043.579,1544.3223443223442,,1,2,1768785191.043579
1768785191051.3916,1549.4505494505493,,1,2,1768785191.0513916
1768785191059.204,1553.113553113553,,1,2,1768785191.059204
1768785191067.0166,1558.974358974359,,1,2,1768785191.0670166
1768785191074.829,1563.3699633699632,,1,2,1768785191.074829
1768785191082.6416,1562.6373626373625,,1,2,1768785191.0826416
1768785191090.454,1562.6373626373625,,1,2,1768785191.090454
1768785191098.2666,1559.7069597069597,,1,2,1768785191.0982666
1768785191106.079,1553.113553113553,,1,2,1768785191.106079
1768785191113.8916,1550.18315018315,,1,2,1768785191.1138916
1768785191121.704,1553.113553113553,,1,2,1768785191.121704
1768785191129.5166,1558.241758241758,,1,2,1768785191.1295166
1768785191137.329,1564.102564102564,,1,2,1768785191.137329
1768785191145.1416,1565.5677655677655,,1,2,1768785191.1451416
1768785191152.954,1568.4981684981683,,1,2,1768785191.152954
1768785191160.7666,1568.4981684981683,,1,2,1768785191.1607666
1768785191168.579,1562.6373626373625,,1,2,1768785191.168579
1768785191176.3916,1556.043956043956,,1,2,1768785191.1763916
1768785191184.204,1545.7875457875457,,1,2,1768785191.184204
1768785191192.0166,1535.5311355311355,,1,2,1768785191.1920166
1768785191199.829,1530.4029304029302,,1,2,1768785191.199829
1768785191207.6416,1524.5421245421244,,1,2,1768785191.2076416
1768785191215.454,1518.6813186813183,,1,2,1768785191.215454
1768785191223.2666,1510.6227106227104,,1,2,1768785191.2232666
1768785191231.079,1496.7032967032967,,1,2,1768785191.231079
1768785191238.8916,1479.8534798534797,,1,2,1768785191.2388916
1768785191246.704,1464.4688644688645,,1,2,1768785191.246704
1768785191254.5166,1453.479853479853,,1,2,1768785191.2545166
1768785191262.329,1448.3516483516482,,1,2,1768785191.262329
1768785191270.1416,1445.4212454212454,,1,2,1768785191.2701416
1768785191277.954,1443.956043956044,,1,2,1768785191.277954
1768785191285.7666,1444.688644688645,,1,2,1768785191.2857666
1768785191293.579,1447.6190476190477,,1,2,1768785191.293579
1768785191301.3916,1448.3516483516482,,1,2,1768785191.3013916
1768785191309.204,1449.084249084249,,1,2,1768785191.309204
1768785191317.0166,1447.6190476190477,,1,2,1768785191.3170166
1768785191324.829,1443.2234432234432,,1,2,1768785191.324829
1768785191332.6416,1436.6300366300366,,1,2,1768785191.3326416
1768785191340.454,1428.5714285714284,,1,2,1768785191.340454
1768785191348.2666,1424.175824175824,,1,2,1768785191.3482666
1768785191356.079,1421.9780219780218,,1,2,1768785191.356079
1768785191363.8916,1422.7106227106226,,1,2,1768785191.3638916
1768785191371.704,1423.4432234432234,,1,2,1768785191.371704
1768785191379.5166,1424.175824175824,,1,2,1768785191.3795166
1768785191387.329,1425.6410256410256,,1,2,1768785191.387329
1768785191395.1416,1428.5714285714284,,1,2,1768785191.3951416
1768785191402.954,1422.7106227106226,,1,2,1768785191.402954
1768785191410.7666,1411.7216117216117,,1,2,1768785191.4107666
1768785191418.579,1400.0,,1,2,1768785191.418579
1768785191426.3916,1393.4065934065934,,1,2,1768785191.4263916
1768785191434.204,1391.2087912087911,,1,2,1768785191.434204
1768785191442.0166,1384.6153846153843,,1,2,1768785191.4420166
1768785191449.829,1375.8241758241757,,1,2,1768785191.449829
1768785191457.6416,1373.6263736263736,,1,2,1768785191.4576416
1768785191465.454,1373.6263736263736,,1,2,1768785191.465454
1768785191473.2666,1372.8937728937728,,1,2,1768785191.4732666
1768785191481.079,1366.3003663003662,,1,2,1768785191.481079
1768785191488.8916,1362.6373626373625,,1,2,1768785191.4888916
1768785191496.704,1360.4395604395604,,1,2,1768785191.496704
1768785191504.5166,1356.043956043956,,1,2,1768785191.5045166
1768785191512.329,1350.18315018315,,1,2,1768785191.512329
1768785191520.1416,1344.3223443223442,,1,2,1768785191.5201416
1768785191527.954,1342.124542124542,,1,2,1768785191.527954
1768785191535.7666,1343.5897435897434,,1,2,1768785191.5357666
1768785191543.579,1346.5201465201465,,1,2,1768785191.543579
1768785191551.3916,1346.5201465201465,,1,2,1768785191.5513916
1768785191559.204,1347.2527472527472,,1,2,1768785191.559204
1768785191567.0166,1345.054945054945,,1,2,1768785191.5670166
1768785191574.829,1345.054945054945,,1,2,1768785191.574829
1768785191582.6416,1345.7875457875457,,1,2,1768785191.5826416
1768785191590.454,1347.2527472527472,,1,2,1768785191.590454
1768785191598.2666,1351.6483516483515,,1,2,1768785191.5982666
1768785191606.079,1352.3809523809523,,1,2,1768785191.606079
1768785191613.8916,1347.985347985348,,1,2,1768785191.6138916
1768785191621.704,1343.5897435897434,,1,2,1768785191.621704
1768785191629.5166,1339.194139194139,,1,2,1768785191.6295166
1768785191637.329,1332.6007326007325,,1,2,1768785191.637329
1768785191645.1416,1326.739926739927,,1,2,1768785191.6451416
1768785191652.954,1323.8095238095236,,1,2,1768785191.652954
1768785191660.7666,1320.8791208791208,,1,2,1768785191.6607666
1768785191668.579,1321.6117216117216,,1,2,1768785191.668579
1768785191676.3916,1322.3443223443223,,1,2,1768785191.6763916
1768785191684.204,1318.6813186813183,,1,2,1768785191.684204
1768785191692.0166,1312.8205128205127,,1,2,1768785191.6920166
1768785191699.829,1306.227106227106,,1,2,1768785191.699829
1768785191707.6416,1301.098901098901,,1,2,1768785191.7076416
1768785191715.454,1298.9010989010987,,1,2,1768785191.715454
1768785191723.2666,1295.2380952380952,,1,2,1768785191.7232666
1768785191731.079,1290.10989010989,,1,2,1768785191.731079
1768785191738.8916,1286.4468864468863,,1,2,1768785191.7388916
1768785191746.704,1284.9816849816848,,1,2,1768785191.746704
1768785191754.5166,1282.7838827838827,,1,2,1768785191.7545166
1768785191762.329,1283.5164835164835,,1,2,1768785191.762329
1768785191770.1416,1287.179487179487,,1,2,1768785191.7701416
1768785191777.954,1291.5750915750914,,1,2,1768785191.777954
1768785191785.7666,1298.9010989010987,,1,2,1768785191.7857666
1768785191793.579,1310.6227106227104,,1,2,1768785191.793579
1768785191801.3916,1323.076923076923,,1,2,1768785191.8013916
1768785191809.204,1338.4615384615383,,1,2,1768785191.809204
1768785191817.0166,1350.18315018315,,1,2,1768785191.8170166
1768785191824.829,1357.5091575091574,,1,2,1768785191.824829
1768785191832.6416,1364.102564102564,,1,2,1768785191.8326416
1768785191840.454,1364.102564102564,,1,2,1768785191.840454
1768785191848.2666,1356.7765567765566,,1,2,1768785191.8482666
1768785191856.079,1348.7179487179487,,1,2,1768785191.856079
1768785191863.8916,1347.2527472527472,,1,2,1768785191.8638916
1768785191871.704,1351.6483516483515,,1,2,1768785191.871704
1768785191879.5166,1357.5091575091574,,1,2,1768785191.8795166
1768785191887.329,1364.102564102564,,1,2,1768785191.887329
1768785191895.1416,1369.230769230769,,1,2,1768785191.8951416
1768785191902.954,1372.8937728937728,,1,2,1768785191.902954
1768785191910.7666,1375.091575091575,,1,2,1768785191.9107666
1768785191918.579,1375.8241758241757,,1,2,1768785191.918579
1768785191926.3916,1375.091575091575,,1,2,1768785191.9263916
1768785191934.204,1374.3589743589744,,1,2,1768785191.934204
1768785191942.0166,1374.3589743589744,,1,2,1768785191.9420166
1768785191949.829,1369.230769230769,,1,2,1768785191.949829
1768785191957.6416,1361.904761904762,,1,2,1768785191.9576416
1768785191965.454,1354.5787545787546,,1,2,1768785191.965454
1768785191973.2666,1348.7179487179487,,1,2,1768785191.9732666
1768785191981.079,1345.054945054945,,1,2,1768785191.981079
1768785191988.8916,1344.3223443223442,,1,2,1768785191.9888916
1768785191996.704,1343.5897435897434,,1,2,1768785191.996704
1768785192004.5166,1343.5897435897434,,1,2,1768785192.0045166
1768785192012.329,1341.3919413919414,,1,2,1768785192.012329
1768785192020.1416,1339.92673992674,,1,2,1768785192.0201416
1768785192027.954,1338.4615384615383,,1,2,1768785192.027954
1768785192035.7666,1334.7985347985348,,1,2,1768785192.0357666
1768785192043.579,1331.8681318681315,,1,2,1768785192.043579
1768785192051.3916,1333.3333333333333,,1,2,1768785192.0513916
1768785192059.204,1334.065934065934,,1,2,1768785192.059204
1768785192067.0166,1336.263736263736,,1,2,1768785192.0670166
1768785192074.829,1336.263736263736,,1,2,1768785192.074829
1768785192082.6416,1337.7289377289376,,1,2,1768785192.0826416
1768785192090.454,1333.3333333333333,,1,2,1768785192.090454
1768785192098.2666,1330.4029304029302,,1,2,1768785192.0982666
1768785192106.079,1331.135531135531,,1,2,1768785192.106079
1768785192113.8916,1328.937728937729,,1,2,1768785192.1138916
1768785192121.704,1324.5421245421244,,1,2,1768785192.121704
1768785192129.5166,1319.4139194139193,,1,2,1768785192.1295166
1768785192137.329,1317.216117216117,,1,2,1768785192.137329
1768785192145.1416,1315.7509157509155,,1,2,1768785192.1451416
1768785192152.954,1317.216117216117,,1,2,1768785192.152954
1768785192160.7666,1318.6813186813183,,1,2,1768785192.1607666
1768785192168.579,1315.018315018315,,1,2,1768785192.168579
1768785192176.3916,1316.4835164835165,,1,2,1768785192.1763916
1768785192184.204,1315.018315018315,,1,2,1768785192.184204
1768785192192.0166,1307.6923076923076,,1,2,1768785192.1920166
1768785192199.829,1301.8315018315018,,1,2,1768785192.199829
1768785192207.6416,1293.040293040293,,1,2,1768785192.2076416
1768785192215.454,1283.5164835164835,,1,2,1768785192.215454
1768785192223.2666,1273.992673992674,,1,2,1768785192.2232666
1768785192231.079,1268.131868131868,,1,2,1768785192.231079
1768785192238.8916,1261.5384615384614,,1,2,1768785192.2388916
1768785192246.704,1255.6776556776556,,1,2,1768785192.246704
1768785192254.5166,1252.7472527472526,,1,2,1768785192.2545166
1768785192262.329,1254.212454212454,,1,2,1768785192.262329
1768785192270.1416,1255.6776556776556,,1,2,1768785192.2701416
1768785192277.954,1259.3406593406592,,1,2,1768785192.277954
1768785192285.7666,1260.07326007326,,1,2,1768785192.2857666
1768785192293.579,1259.3406593406592,,1,2,1768785192.293579
1768785192301.3916,1260.07326007326,,1,2,1768785192.3013916
1768785192309.204,1257.875457875458,,1,2,1768785192.309204
1768785192317.0166,1252.014652014652,,0,-1,1768785192.3170166
1768785192324.829,1242.4908424908424,,0,-1,1768785192.324829
1768785192332.6416,1235.164835164835,,0,-1,1768785192.3326416
1768785192340.454,1230.03663003663,,0,-1,1768785192.340454
1768785192348.2666,1230.03663003663,,0,-1,1768785192.3482666
1768785192356.079,1232.2344322344322,,0,-1,1768785192.356079
1768785192363.8916,1236.6300366300366,,0,-1,1768785192.3638916
1768785192371.704,1237.362637362637,,0,-1,1768785192.371704
1768785192379.5166,1234.4322344322345,,0,-1,1768785192.3795166
1768785192387.329,1234.4322344322345,,0,-1,1768785192.387329
1768785192395.1416,1237.362637362637,,0,-1,1768785192.3951416
1768785192402.954,1241.0256410256409,,0,-1,1768785192.402954
1768785192410.7666,1245.4212454212454,,0,-1,1768785192.4107666
1768785192418.579,1247.6190476190477,,0,-1,1768785192.418579
1768785192426.3916,1249.8168498168498,,0,-1,1768785192.4263916
1768785192434.204,1252.014652014652,,0,-1,1768785192.434204
1768785192442.0166,1252.014652014652,,0,-1,1768785192.4420166
1768785192449.829,1251.2820512820513,,0,-1,1768785192.449829
1768785192457.6416,1252.7472527472526,,0,-1,1768785192.4576416
1768785192465.454,1254.212454212454,,0,-1,1768785192.465454
1768785192473.2666,1254.9450549450548,,0,-1,1768785192.4732666
1768785192481.079,1255.6776556776556,,0,-1,1768785192.481079
1768785192488.8916,1257.875457875458,,0,-1,1768785192.4888916
1768785192496.704,1260.07326007326,,0,-1,1768785192.496704
1768785192504.5166,1263.003663003663,,0,-1,1768785192.5045166
1768785192512.329,1263.7362637362637,,0,-1,1768785192.512329
1768785192520.1416,1264.4688644688645,,0,-1,1768785192.5201416
1768785192527.954,1266.6666666666663,,0,-1,1768785192.527954
1768785192535.7666,1270.3296703296703,,0,-1,1768785192.5357666
1768785192543.579,1274.7252747252746,,0,-1,1768785192.543579
1768785192551.3916,1281.3186813186812,,0,-1,1768785192.5513916
1768785192559.204,1295.970695970696,,0,-1,1768785192.559204
1768785192567.0166,1306.9597069597069,,0,-1,1768785192.5670166
1768785192574.829,1312.087912087912,,0,-1,1768785192.574829
1768785192582.6416,1318.6813186813183,,0,-1,1768785192.5826416
1768785192590.454,1320.8791208791208,,0,-1,1768785192.590454
1768785192598.2666,1320.8791208791208,,0,-1,1768785192.5982666
1768785192606.079,1323.076923076923,,0,-1,1768785192.606079
1768785192613.8916,1326.739926739927,,0,-1,1768785192.6138916
1768785192621.704,1326.739926739927,,0,-1,1768785192.621704
1768785192629.5166,1326.739926739927,,0,-1,1768785192.6295166
1768785192637.329,1328.2051282051282,,0,-1,1768785192.637329
1768785192645.1416,1335.5311355311355,,0,-1,1768785192.6451416
1768785192652.954,1337.7289377289376,,0,-1,1768785192.652954
1768785192660.7666,1336.9963369963368,,0,-1,1768785192.6607666
1768785192668.579,1338.4615384615383,,0,-1,1768785192.668579
1768785192676.3916,1340.6593406593406,,0,-1,1768785192.6763916
1768785192684.204,1339.92673992674,,0,-1,1768785192.684204
1768785192692.0166,1337.7289377289376,,0,-1,1768785192.6920166
1768785192699.829,1337.7289377289376,,0,-1,1768785192.699829
1768785192707.6416,1338.4615384615383,,0,-1,1768785192.7076416
1768785192715.454,1338.4615384615383,,0,-1,1768785192.715454
1768785192723.2666,1339.194139194139,,0,-1,1768785192.7232666
1768785192731.079,1343.5897435897434,,0,-1,1768785192.731079
1768785192738.8916,1344.3223443223442,,0,-1,1768785192.7388916
1768785192746.704,1339.194139194139,,0,-1,1768785192.746704
1768785192754.5166,1335.5311355311355,,0,-1,1768785192.7545166
1768785192762.329,1333.3333333333333,,0,-1,1768785192.762329
1768785192770.1416,1326.007326007326,,0,-1,1768785192.7701416
1768785192777.954,1324.5421245421244,,0,-1,1768785192.777954
1768785192785.7666,1319.4139194139193,,0,-1,1768785192.7857666
1768785192793.579,1318.6813186813183,,0,-1,1768785192.793579
1768785192801.3916,1315.018315018315,,0,-1,1768785192.8013916
1768785192809.204,1315.7509157509155,,0,-1,1768785192.809204
1768785192817.0166,1314.2857142857142,,0,-1,1768785192.8170166
1768785192824.829,1314.2857142857142,,0,-1,1768785192.824829
1768785192832.6416,1313.5531135531137,,0,-1,1768785192.8326416
1768785192840.454,1312.8205128205127,,0,-1,1768785192.840454
1768785192848.2666,1314.2857142857142,,0,-1,1768785192.8482666
1768785192856.079,1312.8205128205127,,0,-1,1768785192.856079
1768785192863.8916,1315.7509157509155,,0,-1,1768785192.8638916
1768785192871.704,1320.14652014652,,0,-1,1768785192.871704
1768785192879.5166,1320.14652014652,,0,-1,1768785192.8795166
1768785192887.329,1323.8095238095236,,0,-1,1768785192.887329
1768785192895.1416,1327.4725274725274,,0,-1,1768785192.8951416
1768785192902.954,1328.2051282051282,,0,-1,1768785192.902954
1768785192910.7666,1328.937728937729,,0,-1,1768785192.9107666
1768785192918.579,1331.8681318681315,,0,-1,1768785192.918579
1768785192926.3916,1332.6007326007325,,0,-1,1768785192.9263916
1768785192934.204,1332.6007326007325,,0,-1,1768785192.934204
1768785192942.0166,1336.263736263736,,0,-1,1768785192.9420166
1768785192949.829,1336.9963369963368,,0,-1,1768785192.949829
1768785192957.6416,1339.92673992674,,0,-1,1768785192.9576416
1768785192965.454,1340.6593406593406,,0,-1,1768785192.965454
1768785192973.2666,1336.263736263736,,0,-1,1768785192.9732666
1768785192981.079,1334.065934065934,,0,-1,1768785192.981079
1768785192988.8916,1328.937728937729,,0,-1,1768785192.9888916
1768785192996.704,1320.14652014652,,0,-1,1768785192.996704
1768785193004.5166,1313.5531135531137,,0,-1,1768785193.0045166
1768785193012.329,1306.227106227106,,0,-1,1768785193.012329
1768785193020.1416,1299.6336996336995,,0,-1,1768785193.0201416
1768785193027.954,1297.4358974358977,,0,-1,1768785193.027954
1768785193035.7666,1293.7728937728937,,0,-1,1768785193.0357666
1768785193043.579,1291.5750915750914,,0,-1,1768785193.043579
1768785193051.3916,1291.5750915750914,,0,-1,1768785193.0513916
1768785193059.204,1287.179487179487,,0,-1,1768785193.059204
1768785193067.0166,1289.3772893772891,,0,-1,1768785193.0670166
1768785193074.829,1293.040293040293,,0,-1,1768785193.074829
1768785193082.6416,1298.9010989010987,,0,-1,1768785193.0826416
1768785193090.454,1306.9597069597069,,0,-1,1768785193.090454
1768785193098.2666,1306.9597069597069,,0,-1,1768785193.0982666
1768785193106.079,1308.4249084249084,,0,-1,1768785193.106079
1768785193113.8916,1304.7619047619046,,0,-1,1768785193.1138916
1768785193121.704,1294.5054945054944,,0,-1,1768785193.121704
1768785193129.5166,1283.5164835164835,,0,-1,1768785193.1295166
1768785193137.329,1273.992673992674,,0,-1,1768785193.137329
1768785193145.1416,1261.5384615384614,,0,-1,1768785193.1451416
1768785193152.954,1255.6776556776556,,0,-1,1768785193.152954
1768785193160.7666,1251.2820512820513,,0,-1,1768785193.1607666
1768785193168.579,1247.6190476190477,,0,-1,1768785193.168579
1768785193176.3916,1251.2820512820513,,0,-1,1768785193.1763916
1768785193184.204,1256.4102564102564,,0,-1,1768785193.184204
1768785193192.0166,1257.142857142857,,0,-1,1768785193.1920166
1768785193199.829,1258.6080586080586,,0,-1,1768785193.199829
1768785193207.6416,1258.6080586080586,,0,-1,1768785193.2076416
1768785193215.454,1259.3406593406592,,0,-1,1768785193.215454
1768785193223.2666,1260.07326007326,,0,-1,1768785193.2232666
1768785193231.079,1260.805860805861,,0,-1,1768785193.231079
1768785193238.8916,1264.4688644688645,,0,-1,1768785193.2388916
1768785193246.704,1264.4688644688645,,0,-1,1768785193.246704
1768785193254.5166,1265.9340659340658,,0,-1,1768785193.2545166
1768785193262.329,1268.8644688644688,,0,-1,1768785193.262329
1768785193270.1416,1270.3296703296703,,0,-1,1768785193.2701416
1768785193277.954,1267.3992673992673,,0,-1,1768785193.277954
1768785193285.7666,1261.5384615384614,,0,-1,1768785193.2857666
1768785193293.579,1254.212454212454,,0,-1,1768785193.293579
1768785193301.3916,1252.014652014652,,0,-1,1768785193.3013916
1768785193309.204,1251.2820512820513,,0,-1,1768785193.309204
1768785193317.0166,1249.8168498168498,,0,-1,1768785193.3170166
1768785193324.829,1251.2820512820513,,0,-1,1768785193.324829
1768785193332.6416,1257.875457875458,,0,-1,1768785193.3326416
1768785193340.454,1266.6666666666663,,0,-1,1768785193.340454
1768785193348.2666,1274.7252747252746,,0,-1,1768785193.3482666
1768785193356.079,1281.3186813186812,,0,-1,1768785193.356079
1768785193363.8916,1287.9120879120878,,0,-1,1768785193.3638916
1768785193371.704,1295.970695970696,,0,-1,1768785193.371704
1768785193379.5166,1304.0293040293038,,0,-1,1768785193.3795166
1768785193387.329,1312.087912087912,,0,-1,1768785193.387329
1768785193395.1416,1320.8791208791208,,0,-1,1768785193.3951416
1768785193402.954,1328.2051282051282,,0,-1,1768785193.402954
1768785193410.7666,1331.135531135531,,0,-1,1768785193.4107666
1768785193418.579,1333.3333333333333,,0,-1,1768785193.418579
1768785193426.3916,1338.4615384615383,,0,-1,1768785193.4263916
1768785193434.204,1339.194139194139,,0,-1,1768785193.434204
1768785193442.0166,1335.5311355311355,,0,-1,1768785193.4420166
1768785193449.829,1336.9963369963368,,0,-1,1768785193.449829
1768785193457.6416,1342.857142857143,,0,-1,1768785193.4576416
1768785193465.454,1343.5897435897434,,0,-1,1768785193.465454
1768785193473.2666,1345.7875457875457,,0,-1,1768785193.4732666
1768785193481.079,1350.9157509157508,,0,-1,1768785193.481079
1768785193488.8916,1348.7179487179487,,0,-1,1768785193.4888916
1768785193496.704,1345.054945054945,,0,-1,1768785193.496704
1768785193504.5166,1343.5897435897434,,0,-1,1768785193.5045166
1768785193512.329,1340.6593406593406,,0,-1,1768785193.512329
1768785193520.1416,1333.3333333333333,,0,-1,1768785193.5201416
1768785193527.954,1332.6007326007325,,0,-1,1768785193.527954
1768785193535.7666,1328.2051282051282,,0,-1,1768785193.5357666
1768785193543.579,1328.937728937729,,0,-1,1768785193.543579
1768785193551.3916,1326.007326007326,,0,-1,1768785193.5513916
1768785193559.204,1320.8791208791208,,0,-1,1768785193.559204
1768785193567.0166,1312.087912087912,,0,-1,1768785193.5670166
1768785193574.829,1301.8315018315018,,0,-1,1768785193.574829
1768785193582.6416,1297.4358974358977,,0,-1,1768785193.5826416
1768785193590.454,1290.10989010989,,0,-1,1768785193.590454
1768785193598.2666,1286.4468864468863,,0,-1,1768785193.5982666
1768785193606.079,1279.8534798534797,,0,-1,1768785193.606079
1768785193613.8916,1280.5860805860805,,0,-1,1768785193.6138916
1768785193621.704,1285.7142857142856,,0,-1,1768785193.621704
1768785193629.5166,1290.10989010989,,0,-1,1768785193.6295166
1768785193637.329,1303.2967032967033,,0,-1,1768785193.637329
1768785193645.1416,1312.8205128205127,,0,-1,1768785193.6451416
1768785193652.954,1323.076923076923,,0,-1,1768785193.652954
1768785193660.7666,1334.065934065934,,0,-1,1768785193.6607666
1768785193668.579,1338.4615384615383,,0,-1,1768785193.668579
1768785193676.3916,1346.5201465201465,,0,-1,1768785193.6763916
1768785193684.204,1351.6483516483515,,0,-1,1768785193.684204
1768785193692.0166,1356.7765567765566,,0,-1,1768785193.6920166
1768785193699.829,1360.4395604395604,,0,-1,1768785193.699829
1768785193707.6416,1361.1721611721612,,0,-1,1768785193.7076416
1768785193715.454,1361.1721611721612,,0,-1,1768785193.715454
1768785193723.2666,1356.7765567765566,,0,-1,1768785193.7232666
1768785193731.079,1347.2527472527472,,0,-1,1768785193.731079
1768785193738.8916,1343.5897435897434,,0,-1,1768785193.7388916
1768785193746.704,1336.263736263736,,0,-1,1768785193.746704
1768785193754.5166,1336.9963369963368,,0,-1,1768785193.7545166
1768785193762.329,1336.9963369963368,,0,-1,1768785193.762329
1768785193770.1416,1331.135531135531,,0,-1,1768785193.7701416
1768785193777.954,1332.6007326007325,,0,-1,1768785193.777954
1768785193785.7666,1329.6703296703297,,0,-1,1768785193.7857666
1768785193793.579,1326.739926739927,,0,-1,1768785193.793579
1768785193801.3916,1328.2051282051282,,0,-1,1768785193.8013916
1768785193809.204,1326.007326007326,,0,-1,1768785193.809204
1768785193817.0166,1326.007326007326,,0,-1,1768785193.8170166
1768785193824.829,1323.076923076923,,0,-1,1768785193.824829
1768785193832.6416,1321.6117216117216,,0,-1,1768785193.8326416
1768785193840.454,1318.6813186813183,,0,-1,1768785193.840454
1768785193848.2666,1318.6813186813183,,0,-1,1768785193.8482666
1768785193856.079,1325.2747252747251,,0,-1,1768785193.856079
1768785193863.8916,1329.6703296703297,,0,-1,1768785193.8638916
1768785193871.704,1332.6007326007325,,0,-1,1768785193.871704
1768785193879.5166,1332.6007326007325,,0,-1,1768785193.8795166
1768785193887.329,1331.135531135531,,0,-1,1768785193.887329
1768785193895.1416,1334.065934065934,,0,-1,1768785193.8951416
1768785193902.954,1336.263736263736,,0,-1,1768785193.902954
1768785193910.7666,1336.263736263736,,0,-1,1768785193.9107666
1768785193918.579,1334.7985347985348,,0,-1,1768785193.918579
1768785193926.3916,1335.5311355311355,,0,-1,1768785193.9263916
1768785193934.204,1335.5311355311355,,0,-1,1768785193.934204
1768785193942.0166,1332.6007326007325,,0,-1,1768785193.9420166
1768785193949.829,1336.9963369963368,,0,-1,1768785193.949829
1768785193957.6416,1343.5897435897434,,0,-1,1768785193.9576416
1768785193965.454,1346.5201465201465,,0,-1,1768785193.965454
1768785193973.2666,1347.985347985348,,0,-1,1768785193.9732666
1768785193981.079,1350.9157509157508,,0,-1,1768785193.981079
1768785193988.8916,1350.18315018315,,0,-1,1768785193.9888916
1768785193996.704,1345.7875457875457,,0,-1,1768785193.996704
1768785194004.5166,1337.7289377289376,,0,-1,1768785194.0045166
1768785194012.329,1337.7289377289376,,0,-1,1768785194.012329
1768785194020.1416,1333.3333333333333,,0,-1,1768785194.0201416
1768785194027.954,1332.6007326007325,,0,-1,1768785194.027954
1768785194035.7666,1331.135531135531,,0,-1,1768785194.0357666
1768785194043.579,1323.8095238095236,,0,-1,1768785194.043579
1768785194051.3916,1315.018315018315,,0,-1,1768785194.0513916
1768785194059.204,1306.227106227106,,0,-1,1768785194.059204
1768785194067.0166,1299.6336996336995,,0,-1,1768785194.0670166
1768785194074.829,1290.10989010989,,0,-1,1768785194.074829
1768785194082.6416,1285.7142857142856,,0,-1,1768785194.0826416
1768785194090.454,1282.7838827838827,,0,-1,1768785194.090454
1768785194098.2666,1277.6556776556777,,0,-1,1768785194.0982666
1768785194106.079,1276.190476190476,,0,-1,1768785194.106079
1768785194113.8916,1275.4578754578754,,0,-1,1768785194.1138916
1768785194121.704,1279.8534798534797,,0,-1,1768785194.121704
1768785194129.5166,1290.10989010989,,0,-1,1768785194.1295166
1768785194137.329,1300.3663003663005,,0,-1,1768785194.137329
1768785194145.1416,1311.3553113553112,,0,-1,1768785194.1451416
1768785194152.954,1323.076923076923,,0,-1,1768785194.152954
1768785194160.7666,1330.4029304029302,,0,-1,1768785194.1607666
1768785194168.579,1336.9963369963368,,0,-1,1768785194.168579
1768785194176.3916,1347.985347985348,,0,-1,1768785194.1763916
1768785194184.204,1353.8461538461538,,0,-1,1768785194.184204
1768785194192.0166,1353.8461538461538,,0,-1,1768785194.1920166
1768785194199.829,1356.043956043956,,0,-1,1768785194.199829
1768785194207.6416,1350.9157509157508,,0,-1,1768785194.2076416
1768785194215.454,1340.6593406593406,,0,-1,1768785194.215454
1768785194223.2666,1332.6007326007325,,0,-1,1768785194.2232666
1768785194231.079,1322.3443223443223,,0,-1,1768785194.231079
1768785194238.8916,1317.9487179487178,,0,-1,1768785194.2388916
1768785194246.704,1317.9487179487178,,0,-1,1768785194.246704
1768785194254.5166,1316.4835164835165,,0,-1,1768785194.2545166
1768785194262.329,1321.6117216117216,,0,-1,1768785194.262329
1768785194270.1416,1320.14652014652,,0,-1,1768785194.2701416
1768785194277.954,1320.8791208791208,,0,-1,1768785194.277954
1768785194285.7666,1313.5531135531137,,0,-1,1768785194.2857666
1768785194293.579,1309.1575091575091,,0,-1,1768785194.293579
1768785194301.3916,1307.6923076923076,,0,-1,1768785194.3013916
1768785194309.204,1301.8315018315018,,0,-1,1768785194.309204
1768785194317.0166,1298.168498168498,,0,-1,1768785194.3170166
1768785194324.829,1293.7728937728937,,0,-1,1768785194.324829
1768785194332.6416,1288.6446886446886,,0,-1,1768785194.3326416
1768785194340.454,1287.179487179487,,0,-1,1768785194.340454
1768785194348.2666,1288.6446886446886,,0,-1,1768785194.3482666
1768785194356.079,1290.8424908424909,,0,-1,1768785194.356079
1768785194363.8916,1304.0293040293038,,0,-1,1768785194.3638916
1768785194371.704,1315.018315018315,,0,-1,1768785194.371704
1768785194379.5166,1326.739926739927,,0,-1,1768785194.3795166
1768785194387.329,1343.5897435897434,,1,3,1768785194.387329
1768785194395.1416,1353.8461538461538,,1,3,1768785194.3951416
1768785194402.954,1360.4395604395604,,1,3,1768785194.402954
1768785194410.7666,1369.9633699633698,,1,3,1768785194.4107666
1768785194418.579,1371.428571428571,,1,3,1768785194.418579
1768785194426.3916,1373.6263736263736,,1,3,1768785194.4263916
1768785194434.204,1380.952380952381,,1,3,1768785194.434204
1768785194442.0166,1383.8827838827838,,1,3,1768785194.4420166
1768785194449.829,1390.4761904761904,,1,3,1768785194.449829
1768785194457.6416,1394.139194139194,,1,3,1768785194.4576416
1768785194465.454,1397.069597069597,,1,3,1768785194.465454
1768785194473.2666,1400.0,,1,3,1768785194.4732666
1768785194481.079,1396.3369963369962,,1,3,1768785194.481079
1768785194488.8916,1389.7435897435896,,1,3,1768785194.4888916
1768785194496.704,1383.8827838827838,,1,3,1768785194.496704
1768785194504.5166,1380.2197802197802,,1,3,1768785194.5045166
1768785194512.329,1372.8937728937728,,1,3,1768785194.512329
1768785194520.1416,1370.6959706959706,,1,3,1768785194.5201416
1768785194527.954,1368.4981684981683,,1,3,1768785194.527954
1768785194535.7666,1365.5677655677655,,1,3,1768785194.5357666
1768785194543.579,1367.7655677655678,,1,3,1768785194.543579
1768785194551.3916,1367.032967032967,,1,3,1768785194.5513916
1768785194559.204,1366.3003663003662,,1,3,1768785194.559204
1768785194567.0166,1369.230769230769,,1,3,1768785194.5670166
1768785194574.829,1373.6263736263736,,1,3,1768785194.574829
1768785194582.6416,1372.8937728937728,,1,3,1768785194.5826416
1768785194590.454,1370.6959706959706,,1,3,1768785194.590454
1768785194598.2666,1369.9633699633698,,1,3,1768785194.5982666
1768785194606.079,1369.230769230769,,1,3,1768785194.606079
1768785194613.8916,1366.3003663003662,,1,3,1768785194.6138916
1768785194621.704,1362.6373626373625,,1,3,1768785194.621704
1768785194629.5166,1362.6373626373625,,1,3,1768785194.6295166
1768785194637.329,1364.8351648351647,,1,3,1768785194.637329
1768785194645.1416,1367.7655677655678,,1,3,1768785194.6451416
1768785194652.954,1369.9633699633698,,1,3,1768785194.652954
1768785194660.7666,1372.8937728937728,,1,3,1768785194.6607666
1768785194668.579,1374.3589743589744,,1,3,1768785194.668579
1768785194676.3916,1373.6263736263736,,1,3,1768785194.6763916
1768785194684.204,1377.2893772893772,,1,3,1768785194.684204
1768785194692.0166,1375.091575091575,,1,3,1768785194.6920166
1768785194699.829,1375.091575091575,,1,3,1768785194.699829
1768785194707.6416,1375.8241758241757,,1,3,1768785194.7076416
1768785194715.454,1371.428571428571,,1,3,1768785194.715454
1768785194723.2666,1369.9633699633698,,1,3,1768785194.7232666
1768785194731.079,1363.3699633699632,,1,3,1768785194.731079
1768785194738.8916,1353.113553113553,,1,3,1768785194.7388916
1768785194746.704,1342.124542124542,,1,3,1768785194.746704
1768785194754.5166,1336.9963369963368,,1,3,1768785194.7545166
1768785194762.329,1327.4725274725274,,1,3,1768785194.762329
1768785194770.1416,1324.5421245421244,,1,3,1768785194.7701416
1768785194777.954,1315.7509157509155,,1,3,1768785194.777954
1768785194785.7666,1308.4249084249084,,1,3,1768785194.7857666
1768785194793.579,1302.5641025641023,,1,3,1768785194.793579
1768785194801.3916,1301.098901098901,,1,3,1768785194.8013916
1768785194809.204,1301.098901098901,,1,3,1768785194.809204
1768785194817.0166,1302.5641025641023,,1,3,1768785194.8170166
1768785194824.829,1309.1575091575091,,1,3,1768785194.824829
1768785194832.6416,1309.89010989011,,1,3,1768785194.8326416
1768785194840.454,1313.5531135531137,,1,3,1768785194.840454
1768785194848.2666,1314.2857142857142,,1,3,1768785194.8482666
1768785194856.079,1319.4139194139193,,1,3,1768785194.856079
1768785194863.8916,1318.6813186813183,,1,3,1768785194.8638916
1768785194871.704,1319.4139194139193,,1,3,1768785194.871704
1768785194879.5166,1317.9487179487178,,1,3,1768785194.8795166
1768785194887.329,1311.3553113553112,,1,3,1768785194.887329
1768785194895.1416,1306.9597069597069,,1,3,1768785194.8951416
1768785194902.954,1300.3663003663005,,1,3,1768785194.902954
1768785194910.7666,1293.040293040293,,1,3,1768785194.9107666
1768785194918.579,1290.10989010989,,1,3,1768785194.918579
1768785194926.3916,1293.040293040293,,1,3,1768785194.9263916
1768785194934.204,1299.6336996336995,,1,3,1768785194.934204
1768785194942.0166,1304.7619047619046,,1,3,1768785194.9420166
1768785194949.829,1313.5531135531137,,1,3,1768785194.949829
1768785194957.6416,1323.8095238095236,,1,3,1768785194.9576416
1768785194965.454,1332.6007326007325,,1,3,1768785194.965454
1768785194973.2666,1338.4615384615383,,1,3,1768785194.9732666
1768785194981.079,1342.857142857143,,1,3,1768785194.981079
1768785194988.8916,1342.857142857143,,1,3,1768785194.9888916
1768785194996.704,1343.5897435897434,,1,3,1768785194.996704
1768785195004.5166,1339.194139194139,,1,3,1768785195.0045166
1768785195012.329,1335.5311355311355,,1,3,1768785195.012329
1768785195020.1416,1329.6703296703297,,1,3,1768785195.0201416
1768785195027.954,1331.135531135531,,1,3,1768785195.027954
1768785195035.7666,1331.135531135531,,1,3,1768785195.0357666
1768785195043.579,1334.7985347985348,,1,3,1768785195.043579
1768785195051.3916,1335.5311355311355,,1,3,1768785195.0513916
1768785195059.204,1338.4615384615383,,1,3,1768785195.059204
1768785195067.0166,1335.5311355311355,,1,3,1768785195.0670166
1768785195074.829,1338.4615384615383,,1,3,1768785195.074829
1768785195082.6416,1338.4615384615383,,1,3,1768785195.0826416
1768785195090.454,1343.5897435897434,,1,3,1768785195.090454
1768785195098.2666,1343.5897435897434,,1,3,1768785195.0982666
1768785195106.079,1347.2527472527472,,1,3,1768785195.106079
1768785195113.8916,1348.7179487179487,,1,3,1768785195.1138916
1768785195121.704,1353.8461538461538,,1,3,1768785195.121704
1768785195129.5166,1356.7765567765566,,1,3,1768785195.1295166
1768785195137.329,1361.904761904762,,1,3,1768785195.137329
1768785195145.1416,1361.1721611721612,,1,3,1768785195.1451416
1768785195152.954,1360.4395604395604,,1,3,1768785195.152954
1768785195160.7666,1355.311355311355,,1,3,1768785195.1607666
1768785195168.579,1350.18315018315,,1,3,1768785195.168579
1768785195176.3916,1348.7179487179487,,1,3,1768785195.1763916
1768785195184.204,1347.2527472527472,,1,3,1768785195.184204
1768785195192.0166,1347.2527472527472,,1,3,1768785195.1920166
1768785195199.829,1350.18315018315,,1,3,1768785195.199829
1768785195207.6416,1347.2527472527472,,1,3,1768785195.2076416
1768785195215.454,1347.2527472527472,,1,3,1768785195.215454
1768785195223.2666,1345.7875457875457,,1,3,1768785195.2232666
1768785195231.079,1345.7875457875457,,1,3,1768785195.231079
1768785195238.8916,1343.5897435897434,,1,3,1768785195.2388916
1768785195246.704,1346.5201465201465,,1,3,1768785195.246704
1768785195254.5166,1345.7875457875457,,1,3,1768785195.2545166
1768785195262.329,1350.18315018315,,1,3,1768785195.262329
1768785195270.1416,1347.985347985348,,1,3,1768785195.2701416
1768785195277.954,1350.18315018315,,1,3,1768785195.277954
1768785195285.7666,1344.3223443223442,,1,3,1768785195.2857666
1768785195293.579,1345.054945054945,,1,3,1768785195.293579
1768785195301.3916,1344.3223443223442,,1,3,1768785195.3013916
1768785195309.204,1347.2527472527472,,1,3,1768785195.309204
1768785195317.0166,1347.2527472527472,,1,3,1768785195.3170166
1768785195324.829,1351.6483516483515,,1,3,1768785195.324829
1768785195332.6416,1351.6483516483515,,1,3,1768785195.3326416
1768785195340.454,1353.8461538461538,,1,3,1768785195.340454
1768785195348.2666,1349.4505494505493,,1,3,1768785195.3482666
1768785195356.079,1349.4505494505493,,1,3,1768785195.356079
1768785195363.8916,1345.7875457875457,,1,3,1768785195.3638916
1768785195371.704,1345.054945054945,,1,3,1768785195.371704
1768785195379.5166,1343.5897435897434,,1,3,1768785195.3795166
1768785195387.329,1343.5897435897434,,1,3,1768785195.387329
1768785195395.1416,1339.194139194139,,1,3,1768785195.3951416
1768785195402.954,1331.8681318681315,,1,3,1768785195.402954
1768785195410.7666,1331.135531135531,,1,3,1768785195.4107666
1768785195418.579,1327.4725274725274,,1,3,1768785195.418579
1768785195426.3916,1326.739926739927,,1,3,1768785195.4263916
1768785195434.204,1322.3443223443223,,1,3,1768785195.434204
1768785195442.0166,1323.8095238095236,,1,3,1768785195.4420166
1768785195449.829,1320.8791208791208,,1,3,1768785195.449829
1768785195457.6416,1321.6117216117216,,1,3,1768785195.4576416
1768785195465.454,1322.3443223443223,,1,3,1768785195.465454
1768785195473.2666,1320.14652014652,,1,3,1768785195.4732666
1768785195481.079,1324.5421245421244,,1,3,1768785195.481079
1768785195488.8916,1323.8095238095236,,1,3,1768785195.4888916
1768785195496.704,1322.3443223443223,,1,3,1768785195.496704
1768785195504.5166,1316.4835164835165,,1,3,1768785195.5045166
1768785195512.329,1316.4835164835165,,1,3,1768785195.512329
1768785195520.1416,1315.018315018315,,1,3,1768785195.5201416
1768785195527.954,1315.7509157509155,,1,3,1768785195.527954
1768785195535.7666,1317.9487179487178,,1,3,1768785195.5357666
1768785195543.579,1319.4139194139193,,1,3,1768785195.543579
1768785195551.3916,1320.8791208791208,,1,3,1768785195.5513916
1768785195559.204,1318.6813186813183,,1,3,1768785195.559204
1768785195567.0166,1318.6813186813183,,1,3,1768785195.5670166
1768785195574.829,1317.216117216117,,1,3,1768785195.574829
1768785195582.6416,1312.8205128205127,,1,3,1768785195.5826416
1768785195590.454,1316.4835164835165,,1,3,1768785195.590454
1768785195598.2666,1318.6813186813183,,1,3,1768785195.5982666
1768785195606.079,1327.4725274725274,,1,3,1768785195.606079
1768785195613.8916,1332.6007326007325,,1,3,1768785195.6138916
1768785195621.704,1340.6593406593406,,1,3,1768785195.621704
1768785195629.5166,1343.5897435897434,,1,3,1768785195.6295166
1768785195637.329,1350.18315018315,,1,3,1768785195.637329
1768785195645.1416,1353.113553113553,,1,3,1768785195.6451416
1768785195652.954,1359.7069597069597,,1,3,1768785195.652954
1768785195660.7666,1364.8351648351647,,1,3,1768785195.6607666
1768785195668.579,1362.6373626373625,,1,3,1768785195.668579
1768785195676.3916,1362.6373626373625,,1,3,1768785195.6763916
1768785195684.204,1354.5787545787546,,1,3,1768785195.684204
1768785195692.0166,1347.985347985348,,1,3,1768785195.6920166
1768785195699.829,1338.4615384615383,,1,3,1768785195.699829
1768785195707.6416,1331.8681318681315,,1,3,1768785195.7076416
1768785195715.454,1320.14652014652,,1,3,1768785195.715454
1768785195723.2666,1306.227106227106,,1,3,1768785195.7232666
1768785195731.079,1294.5054945054944,,1,3,1768785195.731079
1768785195738.8916,1283.5164835164835,,1,3,1768785195.7388916
1768785195746.704,1286.4468864468863,,1,3,1768785195.746704
1768785195754.5166,1289.3772893772891,,1,3,1768785195.7545166
1768785195762.329,1294.5054945054944,,1,3,1768785195.762329
1768785195770.1416,1304.7619047619046,,1,3,1768785195.7701416
1768785195777.954,1312.8205128205127,,1,3,1768785195.777954
1768785195785.7666,1323.8095238095236,,1,3,1768785195.7857666
1768785195793.579,1335.5311355311355,,1,3,1768785195.793579
1768785195801.3916,1343.5897435897434,,1,3,1768785195.8013916
1768785195809.204,1356.043956043956,,1,3,1768785195.809204
1768785195817.0166,1367.032967032967,,1,3,1768785195.8170166
1768785195824.829,1370.6959706959706,,1,3,1768785195.824829
1768785195832.6416,1372.8937728937728,,1,3,1768785195.8326416
1768785195840.454,1375.8241758241757,,1,3,1768785195.840454
1768785195848.2666,1375.091575091575,,1,3,1768785195.8482666
1768785195856.079,1379.4871794871794,,1,3,1768785195.856079
1768785195863.8916,1383.8827838827838,,1,3,1768785195.8638916
1768785195871.704,1388.278388278388,,0,-1,1768785195.871704
1768785195879.5166,1394.8717948717947,,0,-1,1768785195.8795166
1768785195887.329,1395.6043956043954,,0,-1,1768785195.887329
1768785195895.1416,1395.6043956043954,,0,-1,1768785195.8951416
1768785195902.954,1391.941391941392,,0,-1,1768785195.902954
1768785195910.7666,1389.7435897435896,,0,-1,1768785195.9107666
1768785195918.579,1388.278388278388,,0,-1,1768785195.918579
1768785195926.3916,1381.6849816849815,,0,-1,1768785195.9263916
1768785195934.204,1378.021978021978,,0,-1,1768785195.934204
1768785195942.0166,1369.230769230769,,0,-1,1768785195.9420166
1768785195949.829,1366.3003663003662,,0,-1,1768785195.949829
1768785195957.6416,1364.102564102564,,0,-1,1768785195.9576416
1768785195965.454,1361.1721611721612,,0,-1,1768785195.965454
1768785195973.2666,1361.904761904762,,0,-1,1768785195.9732666
1768785195981.079,1358.241758241758,,0,-1,1768785195.981079
1768785195988.8916,1356.7765567765566,,0,-1,1768785195.9888916
1768785195996.704,1355.311355311355,,0,-1,1768785195.996704
1768785196004.5166,1350.9157509157508,,0,-1,1768785196.0045166
1768785196012.329,1351.6483516483515,,0,-1,1768785196.012329
1768785196020.1416,1346.5201465201465,,0,-1,1768785196.0201416
1768785196027.954,1344.3223443223442,,0,-1,1768785196.027954
1768785196035.7666,1341.3919413919414,,0,-1,1768785196.0357666
1768785196043.579,1338.4615384615383,,0,-1,1768785196.043579
1768785196051.3916,1339.92673992674,,0,-1,1768785196.0513916
1768785196059.204,1343.5897435897434,,0,-1,1768785196.059204
1768785196067.0166,1341.3919413919414,,0,-1,1768785196.0670166
1768785196074.829,1336.263736263736,,0,-1,1768785196.074829
1768785196082.6416,1333.3333333333333,,0,-1,1768785196.0826416
1768785196090.454,1334.065934065934,,0,-1,1768785196.090454
1768785196098.2666,1333.3333333333333,,0,-1,1768785196.0982666
1768785196106.079,1339.194139194139,,0,-1,1768785196.106079
1768785196113.8916,1341.3919413919414,,0,-1,1768785196.1138916
1768785196121.704,1345.7875457875457,,0,-1,1768785196.121704
1768785196129.5166,1343.5897435897434,,0,-1,1768785196.1295166
1768785196137.329,1337.7289377289376,,0,-1,1768785196.137329
1768785196145.1416,1333.3333333333333,,0,-1,1768785196.1451416
1768785196152.954,1329.6703296703297,,0,-1,1768785196.152954
1768785196160.7666,1332.6007326007325,,0,-1,1768785196.1607666
1768785196168.579,1332.6007326007325,,0,-1,1768785196.168579
1768785196176.3916,1335.5311355311355,,0,-1,1768785196.1763916
1768785196184.204,1335.5311355311355,,0,-1,1768785196.184204
1768785196192.0166,1332.6007326007325,,0,-1,1768785196.1920166
1768785196199.829,1333.3333333333333,,0,-1,1768785196.199829
1768785196207.6416,1331.8681318681315,,0,-1,1768785196.2076416
1768785196215.454,1329.6703296703297,,0,-1,1768785196.215454
1768785196223.2666,1322.3443223443223,,0,-1,1768785196.2232666
1768785196231.079,1317.216117216117,,0,-1,1768785196.231079
1768785196238.8916,1307.6923076923076,,0,-1,1768785196.2388916
1768785196246.704,1295.970695970696,,0,-1,1768785196.246704
1768785196254.5166,1286.4468864468863,,0,-1,1768785196.2545166
1768785196262.329,1271.7948717948716,,0,-1,1768785196.262329
1768785196270.1416,1263.7362637362637,,0,-1,1768785196.2701416
1768785196277.954,1255.6776556776556,,0,-1,1768785196.277954
1768785196285.7666,1246.153846153846,,0,-1,1768785196.2857666
1768785196293.579,1243.956043956044,,0,-1,1768785196.293579
1768785196301.3916,1244.688644688645,,0,-1,1768785196.3013916
1768785196309.204,1251.2820512820513,,0,-1,1768785196.309204
1768785196317.0166,1259.3406593406592,,0,-1,1768785196.3170166
1768785196324.829,1267.3992673992673,,0,-1,1768785196.324829
1768785196332.6416,1275.4578754578754,,0,-1,1768785196.3326416
1768785196340.454,1281.3186813186812,,0,-1,1768785196.340454
1768785196348.2666,1292.3076923076922,,0,-1,1768785196.3482666
1768785196356.079,1297.4358974358977,,0,-1,1768785196.356079
1768785196363.8916,1307.6923076923076,,0,-1,1768785196.3638916
1768785196371.704,1310.6227106227104,,0,-1,1768785196.371704
1768785196379.5166,1313.5531135531137,,0,-1,1768785196.3795166
1768785196387.329,1308.4249084249084,,0,-1,1768785196.387329
1768785196395.1416,1306.227106227106,,0,-1,1768785196.3951416
1768785196402.954,1293.040293040293,,0,-1,1768785196.402954
1768785196410.7666,1282.051282051282,,0,-1,1768785196.4107666
1768785196418.579,1264.4688644688645,,0,-1,1768785196.418579
1768785196426.3916,1252.014652014652,,0,-1,1768785196.4263916
1768785196434.204,1234.4322344322345,,0,-1,1768785196.434204
1768785196442.0166,1222.7106227106226,,0,-1,1768785196.4420166
1768785196449.829,1213.9194139194135,,0,-1,1768785196.449829
1768785196457.6416,1210.2564102564102,,0,-1,1768785196.4576416
1768785196465.454,1213.1868131868132,,0,-1,1768785196.465454
1768785196473.2666,1210.2564102564102,,0,-1,1768785196.4732666
1768785196481.079,1213.1868131868132,,0,-1,1768785196.481079
1768785196488.8916,1212.4542124542124,,0,-1,1768785196.4888916
1768785196496.704,1217.5824175824175,,0,-1,1768785196.496704
1768785196504.5166,1219.047619047619,,0,-1,1768785196.5045166
1768785196512.329,1226.3736263736264,,0,-1,1768785196.512329
1768785196520.1416,1232.2344322344322,,0,-1,1768785196.5201416
1768785196527.954,1245.4212454212454,,0,-1,1768785196.527954
1768785196535.7666,1256.4102564102564,,0,-1,1768785196.5357666
1768785196543.579,1273.260073260073,,0,-1,1768785196.543579
1768785196551.3916,1289.3772893772891,,0,-1,1768785196.5513916
1768785196559.204,1303.2967032967033,,0,-1,1768785196.559204
1768785196567.0166,1320.14652014652,,0,-1,1768785196.5670166
1768785196574.829,1331.8681318681315,,0,-1,1768785196.574829
1768785196582.6416,1345.054945054945,,0,-1,1768785196.5826416
1768785196590.454,1353.8461538461538,,0,-1,1768785196.590454
1768785196598.2666,1362.6373626373625,,0,-1,1768785196.5982666
1768785196606.079,1371.428571428571,,0,-1,1768785196.606079
1768785196613.8916,1375.091575091575,,0,-1,1768785196.6138916
1768785196621.704,1373.6263736263736,,0,-1,1768785196.621704
1768785196629.5166,1377.2893772893772,,0,-1,1768785196.6295166
1768785196637.329,1380.952380952381,,0,-1,1768785196.637329
1768785196645.1416,1386.8131868131868,,0,-1,1768785196.6451416
1768785196652.954,1392.6739926739926,,0,-1,1768785196.652954
1768785196660.7666,1394.8717948717947,,0,-1,1768785196.6607666
1768785196668.579,1391.2087912087911,,0,-1,1768785196.668579
1768785196676.3916,1389.7435897435896,,0,-1,1768785196.6763916
1768785196684.204,1386.080586080586,,0,-1,1768785196.684204
1768785196692.0166,1380.2197802197802,,0,-1,1768785196.6920166
1768785196699.829,1376.5567765567764,,0,-1,1768785196.699829
1768785196707.6416,1373.6263736263736,,0,-1,1768785196.7076416
1768785196715.454,1368.4981684981683,,0,-1,1768785196.715454
1768785196723.2666,1367.7655677655678,,0,-1,1768785196.7232666
1768785196731.079,1368.4981684981683,,0,-1,1768785196.731079
1768785196738.8916,1368.4981684981683,,0,-1,1768785196.7388916
1768785196746.704,1373.6263736263736,,0,-1,1768785196.746704
1768785196754.5166,1376.5567765567764,,0,-1,1768785196.7545166
1768785196762.329,1383.8827838827838,,0,-1,1768785196.762329
1768785196770.1416,1388.278388278388,,0,-1,1768785196.7701416
1768785196777.954,1394.139194139194,,0,-1,1768785196.777954
1768785196785.7666,1396.3369963369962,,0,-1,1768785196.7857666
1768785196793.579,1392.6739926739926,,0,-1,1768785196.793579
1768785196801.3916,1393.4065934065934,,0,-1,1768785196.8013916
1768785196809.204,1389.0109890109889,,0,-1,1768785196.809204
1768785196817.0166,1391.2087912087911,,0,-1,1768785196.8170166
1768785196824.829,1391.941391941392,,0,-1,1768785196.824829
1768785196832.6416,1389.7435897435896,,0,-1,1768785196.8326416
1768785196840.454,1393.4065934065934,,0,-1,1768785196.840454
1768785196848.2666,1390.4761904761904,,0,-1,1768785196.8482666
1768785196856.079,1391.941391941392,,0,-1,1768785196.856079
1768785196863.8916,1386.080586080586,,0,-1,1768785196.8638916
1768785196871.704,1383.150183150183,,0,-1,1768785196.871704
1768785196879.5166,1377.2893772893772,,0,-1,1768785196.8795166
1768785196887.329,1372.8937728937728,,0,-1,1768785196.887329
1768785196895.1416,1370.6959706959706,,0,-1,1768785196.8951416
1768785196902.954,1367.7655677655678,,0,-1,1768785196.902954
1768785196910.7666,1370.6959706959706,,0,-1,1768785196.9107666
1768785196918.579,1369.230769230769,,0,-1,1768785196.918579
1768785196926.3916,1372.8937728937728,,0,-1,1768785196.9263916
1768785196934.204,1376.5567765567764,,0,-1,1768785196.934204
1768785196942.0166,1379.4871794871794,,0,-1,1768785196.9420166
1768785196949.829,1385.3479853479853,,0,-1,1768785196.949829
1768785196957.6416,1385.3479853479853,,0,-1,1768785196.9576416
1768785196965.454,1389.0109890109889,,0,-1,1768785196.965454
1768785196973.2666,1389.7435897435896,,0,-1,1768785196.9732666
1768785196981.079,1391.2087912087911,,0,-1,1768785196.981079
1768785196988.8916,1396.3369963369962,,0,-1,1768785196.9888916
1768785196996.704,1396.3369963369962,,0,-1,1768785196.996704
1768785197004.5166,1399.2673992673992,,0,-1,1768785197.0045166
1768785197012.329,1393.4065934065934,,0,-1,1768785197.012329
1768785197020.1416,1389.7435897435896,,0,-1,1768785197.0201416
1768785197027.954,1379.4871794871794,,0,-1,1768785197.027954
1768785197035.7666,1374.3589743589744,,0,-1,1768785197.0357666
1768785197043.579,1362.6373626373625,,0,-1,1768785197.043579
1768785197051.3916,1356.7765567765566,,0,-1,1768785197.0513916
1768785197059.204,1346.5201465201465,,0,-1,1768785197.059204
1768785197067.0166,1342.124542124542,,0,-1,1768785197.0670166
1768785197074.829,1333.3333333333333,,0,-1,1768785197.074829
1768785197082.6416,1331.8681318681315,,0,-1,1768785197.0826416
1768785197090.454,1328.2051282051282,,0,-1,1768785197.090454
1768785197098.2666,1334.065934065934,,0,-1,1768785197.0982666
1768785197106.079,1342.857142857143,,0,-1,1768785197.106079
1768785197113.8916,1354.5787545787546,,0,-1,1768785197.1138916
1768785197121.704,1363.3699633699632,,0,-1,1768785197.121704
1768785197129.5166,1367.7655677655678,,0,-1,1768785197.1295166
1768785197137.329,1372.161172161172,,0,-1,1768785197.137329
1768785197145.1416,1372.161172161172,,0,-1,1768785197.1451416
1768785197152.954,1370.6959706959706,,0,-1,1768785197.152954
1768785197160.7666,1369.230769230769,,0,-1,1768785197.1607666
1768785197168.579,1363.3699633699632,,0,-1,1768785197.168579
1768785197176.3916,1358.974358974359,,0,-1,1768785197.1763916
1768785197184.204,1351.6483516483515,,0,-1,1768785197.184204
1768785197192.0166,1348.7179487179487,,0,-1,1768785197.1920166
1768785197199.829,1343.5897435897434,,0,-1,1768785197.199829
1768785197207.6416,1340.6593406593406,,0,-1,1768785197.2076416
1768785197215.454,1334.065934065934,,0,-1,1768785197.215454
1768785197223.2666,1329.6703296703297,,0,-1,1768785197.2232666
1768785197231.079,1326.739926739927,,0,-1,1768785197.231079
1768785197238.8916,1323.076923076923,,0,-1,1768785197.2388916
1768785197246.704,1323.8095238095236,,0,-1,1768785197.246704
1768785197254.5166,1323.8095238095236,,0,-1,1768785197.2545166
1768785197262.329,1328.937728937729,,0,-1,1768785197.262329
1768785197270.1416,1334.7985347985348,,0,-1,1768785197.2701416
1768785197277.954,1341.3919413919414,,0,-1,1768785197.277954
1768785197285.7666,1350.18315018315,,0,-1,1768785197.2857666
1768785197293.579,1359.7069597069597,,0,-1,1768785197.293579
1768785197301.3916,1369.230769230769,,0,-1,1768785197.3013916
1768785197309.204,1380.2197802197802,,0,-1,1768785197.309204
1768785197317.0166,1389.0109890109889,,0,-1,1768785197.3170166
1768785197324.829,1401.4652014652013,,0,-1,1768785197.324829
1768785197332.6416,1415.3846153846152,,0,-1,1768785197.3326416
1768785197340.454,1424.175824175824,,0,-1,1768785197.340454
1768785197348.2666,1435.164835164835,,0,-1,1768785197.3482666
1768785197356.079,1438.095238095238,,0,-1,1768785197.356079
1768785197363.8916,1441.0256410256409,,0,-1,1768785197.3638916
1768785197371.704,1438.095238095238,,0,-1,1768785197.371704
1768785197379.5166,1438.8278388278388,,0,-1,1768785197.3795166
1768785197387.329,1435.8974358974358,,0,-1,1768785197.387329
1768785197395.1416,1440.29304029304,,0,-1,1768785197.3951416
1768785197402.954,1444.688644688645,,0,-1,1768785197.402954
1768785197410.7666,1452.7472527472526,,0,-1,1768785197.4107666
1768785197418.579,1459.3406593406592,,0,-1,1768785197.418579
1768785197426.3916,1470.3296703296703,,0,-1,1768785197.4263916
1768785197434.204,1474.7252747252746,,0,-1,1768785197.434204
1768785197442.0166,1481.3186813186812,,0,-1,1768785197.4420166
1768785197449.829,1483.5164835164835,,0,-1,1768785197.449829
1768785197457.6416,1488.6446886446886,,0,-1,1768785197.4576416
1768785197465.454,1488.6446886446886,,0,-1,1768785197.465454
1768785197473.2666,1490.10989010989,,0,-1,1768785197.4732666
1768785197481.079,1487.9120879120878,,0,-1,1768785197.481079
1768785197488.8916,1487.179487179487,,0,-1,1768785197.4888916
1768785197496.704,1485.7142857142856,,0,-1,1768785197.496704
1768785197504.5166,1485.7142857142856,,0,-1,1768785197.5045166
1768785197512.329,1476.190476190476,,0,-1,1768785197.512329
1768785197520.1416,1470.3296703296703,,0,-1,1768785197.5201416
1768785197527.954,1467.3992673992673,,0,-1,1768785197.527954
1768785197535.7666,1459.3406593406592,,0,-1,1768785197.5357666
1768785197543.579,1456.4102564102564,,0,-1,1768785197.543579
1768785197551.3916,1443.2234432234432,,0,-1,1768785197.5513916
1768785197559.204,1431.5018315018317,,0,-1,1768785197.559204
1768785197567.0166,1420.5128205128203,,0,-1,1768785197.5670166
1768785197574.829,1417.5824175824175,,0,-1,1768785197.574829
1768785197582.6416,1419.7802197802198,,0,-1,1768785197.5826416
1768785197590.454,1421.245421245421,,0,-1,1768785197.590454
1768785197598.2666,1428.5714285714284,,0,-1,1768785197.5982666
1768785197606.079,1429.3040293040292,,0,-1,1768785197.606079
1768785197613.8916,1432.2344322344322,,0,-1,1768785197.6138916
1768785197621.704,1434.4322344322345,,0,-1,1768785197.621704
1768785197629.5166,1432.2344322344322,,0,-1,1768785197.6295166
1768785197637.329,1436.6300366300366,,0,-1,1768785197.637329
1768785197645.1416,1432.9670329670328,,0,-1,1768785197.6451416
1768785197652.954,1435.164835164835,,0,-1,1768785197.652954
1768785197660.7666,1433.6996336996335,,0,-1,1768785197.6607666
1768785197668.579,1434.4322344322345,,0,-1,1768785197.668579
1768785197676.3916,1432.9670329670328,,0,-1,1768785197.6763916
1768785197684.204,1434.4322344322345,,0,-1,1768785197.684204
1768785197692.0166,1432.2344322344322,,0,-1,1768785197.6920166
1768785197699.829,1430.03663003663,,0,-1,1768785197.699829
1768785197707.6416,1424.9084249084249,,0,-1,1768785197.7076416
1768785197715.454,1412.4542124542124,,0,-1,1768785197.715454
1768785197723.2666,1409.5238095238094,,0,-1,1768785197.7232666
1768785197731.079,1408.058608058608,,0,-1,1768785197.731079
1768785197738.8916,1414.6520146520145,,0,-1,1768785197.7388916
1768785197746.704,1413.1868131868132,,0,-1,1768785197.746704
1768785197754.5166,1413.1868131868132,,0,-1,1768785197.7545166
1768785197762.329,1410.2564102564102,,0,-1,1768785197.762329
1768785197770.1416,1410.989010989011,,0,-1,1768785197.7701416
1768785197777.954,1413.9194139194135,,0,-1,1768785197.777954
1768785197785.7666,1418.3150183150185,,0,-1,1768785197.7857666
1768785197793.579,1423.4432234432234,,0,-1,1768785197.793579
1768785197801.3916,1421.9780219780218,,0,-1,1768785197.8013916
1768785197809.204,1421.9780219780218,,0,-1,1768785197.809204
1768785197817.0166,1424.9084249084249,,0,-1,1768785197.8170166
1768785197824.829,1422.7106227106226,,0,-1,1768785197.824829
1768785197832.6416,1424.9084249084249,,0,-1,1768785197.8326416
1768785197840.454,1429.3040293040292,,0,-1,1768785197.840454
1768785197848.2666,1428.5714285714284,,0,-1,1768785197.8482666
1768785197856.079,1431.5018315018317,,0,-1,1768785197.856079
1768785197863.8916,1427.106227106227,,0,-1,1768785197.8638916
1768785197871.704,1425.6410256410256,,0,-1,1768785197.871704
1768785197879.5166,1419.047619047619,,0,-1,1768785197.8795166
1768785197887.329,1420.5128205128203,,0,-1,1768785197.887329
1768785197895.1416,1419.7802197802198,,0,-1,1768785197.8951416
1768785197902.954,1422.7106227106226,,0,-1,1768785197.902954
1768785197910.7666,1428.5714285714284,,0,-1,1768785197.9107666
1768785197918.579,1435.164835164835,,0,-1,1768785197.918579
1768785197926.3916,1440.29304029304,,0,-1,1768785197.9263916
1768785197934.204,1437.362637362637,,0,-1,1768785197.934204
1768785197942.0166,1436.6300366300366,,0,-1,1768785197.9420166
1768785197949.829,1428.5714285714284,,0,-1,1768785197.949829
1768785197957.6416,1424.9084249084249,,0,-1,1768785197.9576416
1768785197965.454,1422.7106227106226,,0,-1,1768785197.965454
1768785197973.2666,1418.3150183150185,,1,4,1768785197.9732666
1768785197981.079,1420.5128205128203,,1,4,1768785197.981079
1768785197988.8916,1423.4432234432234,,1,4,1768785197.9888916
1768785197996.704,1425.6410256410256,,1,4,1768785197.996704
1768785198004.5166,1438.095238095238,,1,4,1768785198.0045166
1768785198012.329,1447.6190476190477,,1,4,1768785198.012329
1768785198020.1416,1459.3406593406592,,1,4,1768785198.0201416
1768785198027.954,1464.4688644688645,,1,4,1768785198.027954
1768785198035.7666,1466.6666666666663,,1,4,1768785198.0357666
1768785198043.579,1468.131868131868,,1,4,1768785198.043579
1768785198051.3916,1467.3992673992673,,1,4,1768785198.0513916
1768785198059.204,1473.260073260073,,1,4,1768785198.059204
1768785198067.0166,1473.992673992674,,1,4,1768785198.0670166
1768785198074.829,1483.5164835164835,,1,4,1768785198.074829
1768785198082.6416,1493.7728937728937,,1,4,1768785198.0826416
1768785198090.454,1503.2967032967033,,1,4,1768785198.090454
1768785198098.2666,1517.9487179487178,,1,4,1768785198.0982666
1768785198106.079,1531.135531135531,,1,4,1768785198.106079
1768785198113.8916,1539.92673992674,,1,4,1768785198.1138916
1768785198121.704,1555.311355311355,,1,4,1768785198.121704
1768785198129.5166,1574.3589743589744,,1,4,1768785198.1295166
1768785198137.329,1589.7435897435896,,1,4,1768785198.137329
1768785198145.1416,1600.0,,1,4,1768785198.1451416
1768785198152.954,1611.7216117216117,,1,4,1768785198.152954
1768785198160.7666,1622.7106227106226,,1,4,1768785198.1607666
1768785198168.579,1634.4322344322345,,1,4,1768785198.168579
1768785198176.3916,1648.3516483516482,,1,4,1768785198.1763916
1768785198184.204,1657.142857142857,,1,4,1768785198.184204
1768785198192.0166,1658.6080586080584,,1,4,1768785198.1920166
1768785198199.829,1655.6776556776556,,1,4,1768785198.199829
1768785198207.6416,1643.2234432234432,,1,4,1768785198.2076416
1768785198215.454,1628.5714285714284,,1,4,1768785198.215454
1768785198223.2666,1615.3846153846152,,1,4,1768785198.2232666
1768785198231.079,1600.7326007326003,,1,4,1768785198.231079
1768785198238.8916,1590.4761904761904,,1,4,1768785198.2388916
1768785198246.704,1583.8827838827838,,1,4,1768785198.246704
1768785198254.5166,1576.5567765567764,,1,4,1768785198.2545166
1768785198262.329,1572.8937728937728,,1,4,1768785198.262329
1768785198270.1416,1574.3589743589744,,1,4,1768785198.2701416
1768785198277.954,1570.6959706959706,,1,4,1768785198.277954
1768785198285.7666,1565.5677655677655,,1,4,1768785198.2857666
1768785198293.579,1566.3003663003662,,1,4,1768785198.293579
1768785198301.3916,1567.032967032967,,1,4,1768785198.3013916
1768785198309.204,1566.3003663003662,,1,4,1768785198.309204
1768785198317.0166,1567.032967032967,,1,4,1768785198.3170166
1768785198324.829,1560.4395604395604,,1,4,1768785198.324829
1768785198332.6416,1552.3809523809523,,1,4,1768785198.3326416
1768785198340.454,1545.054945054945,,1,4,1768785198.340454
1768785198348.2666,1532.6007326007325,,1,4,1768785198.3482666
1768785198356.079,1526.007326007326,,1,4,1768785198.356079
1768785198363.8916,1517.216117216117,,1,4,1768785198.3638916
1768785198371.704,1507.6923076923076,,1,4,1768785198.371704
1768785198379.5166,1502.5641025641023,,1,4,1768785198.3795166
1768785198387.329,1498.168498168498,,1,4,1768785198.387329
1768785198395.1416,1491.5750915750914,,1,4,1768785198.3951416
1768785198402.954,1491.5750915750914,,1,4,1768785198.402954
1768785198410.7666,1487.179487179487,,1,4,1768785198.4107666
1768785198418.579,1482.7838827838827,,1,4,1768785198.418579
1768785198426.3916,1478.3882783882782,,1,4,1768785198.4263916
1768785198434.204,1473.992673992674,,1,4,1768785198.434204
1768785198442.0166,1475.4578754578754,,1,4,1768785198.4420166
1768785198449.829,1471.7948717948716,,1,4,1768785198.449829
1768785198457.6416,1467.3992673992673,,1,4,1768785198.4576416
1768785198465.454,1465.201465201465,,1,4,1768785198.465454
1768785198473.2666,1460.805860805861,,1,4,1768785198.4732666
1768785198481.079,1460.07326007326,,1,4,1768785198.481079
1768785198488.8916,1462.2710622710622,,1,4,1768785198.4888916
1768785198496.704,1460.805860805861,,1,4,1768785198.496704
1768785198504.5166,1457.875457875458,,1,4,1768785198.5045166
1768785198512.329,1452.7472527472526,,1,4,1768785198.512329
1768785198520.1416,1444.688644688645,,1,4,1768785198.5201416
1768785198527.954,1435.8974358974358,,1,4,1768785198.527954
1768785198535.7666,1432.2344322344322,,1,4,1768785198.5357666
1768785198543.579,1428.5714285714284,,1,4,1768785198.543579
1768785198551.3916,1424.9084249084249,,1,4,1768785198.5513916
1768785198559.204,1425.6410256410256,,1,4,1768785198.559204
1768785198567.0166,1425.6410256410256,,1,4,1768785198.5670166
1768785198574.829,1425.6410256410256,,1,4,1768785198.574829
1768785198582.6416,1427.8388278388277,,1,4,1768785198.5826416
1768785198590.454,1423.4432234432234,,1,4,1768785198.590454
1768785198598.2666,1414.6520146520145,,1,4,1768785198.5982666
1768785198606.079,1405.8608058608058,,1,4,1768785198.606079
1768785198613.8916,1400.0,,1,4,1768785198.6138916
1768785198621.704,1391.941391941392,,1,4,1768785198.621704
1768785198629.5166,1388.278388278388,,1,4,1768785198.6295166
1768785198637.329,1385.3479853479853,,1,4,1768785198.637329
1768785198645.1416,1385.3479853479853,,1,4,1768785198.6451416
1768785198652.954,1391.2087912087911,,1,4,1768785198.652954
1768785198660.7666,1394.8717948717947,,1,4,1768785198.6607666
1768785198668.579,1394.8717948717947,,1,4,1768785198.668579
1768785198676.3916,1394.8717948717947,,1,4,1768785198.6763916
1768785198684.204,1393.4065934065934,,1,4,1768785198.684204
1768785198692.0166,1385.3479853479853,,1,4,1768785198.6920166
1768785198699.829,1378.021978021978,,1,4,1768785198.699829
1768785198707.6416,1372.8937728937728,,1,4,1768785198.7076416
1768785198715.454,1371.428571428571,,1,4,1768785198.715454
1768785198723.2666,1367.7655677655678,,1,4,1768785198.7232666
1768785198731.079,1367.032967032967,,1,4,1768785198.731079
1768785198738.8916,1372.161172161172,,1,4,1768785198.7388916
1768785198746.704,1375.8241758241757,,1,4,1768785198.746704
1768785198754.5166,1377.2893772893772,,1,4,1768785198.7545166
1768785198762.329,1379.4871794871794,,1,4,1768785198.762329
1768785198770.1416,1379.4871794871794,,1,4,1768785198.7701416
1768785198777.954,1377.2893772893772,,1,4,1768785198.777954
1768785198785.7666,1375.8241758241757,,1,4,1768785198.7857666
1768785198793.579,1372.8937728937728,,1,4,1768785198.793579
1768785198801.3916,1367.032967032967,,1,4,1768785198.8013916
1768785198809.204,1364.102564102564,,1,4,1768785198.809204
1768785198817.0166,1365.5677655677655,,1,4,1768785198.8170166
1768785198824.829,1367.032967032967,,1,4,1768785198.824829
1768785198832.6416,1365.5677655677655,,1,4,1768785198.8326416
1768785198840.454,1369.9633699633698,,1,4,1768785198.840454
1768785198848.2666,1370.6959706959706,,1,4,1768785198.8482666
1768785198856.079,1369.230769230769,,1,4,1768785198.856079
1768785198863.8916,1364.8351648351647,,1,4,1768785198.8638916
1768785198871.704,1360.4395604395604,,1,4,1768785198.871704
1768785198879.5166,1357.5091575091574,,1,4,1768785198.8795166
1768785198887.329,1354.5787545787546,,1,4,1768785198.887329
1768785198895.1416,1357.5091575091574,,1,4,1768785198.8951416
1768785198902.954,1360.4395604395604,,1,4,1768785198.902954
1768785198910.7666,1363.3699633699632,,1,4,1768785198.9107666
1768785198918.579,1373.6263736263736,,1,4,1768785198.918579
1768785198926.3916,1387.5457875457876,,1,4,1768785198.9263916
1768785198934.204,1400.7326007326003,,1,4,1768785198.934204
1768785198942.0166,1419.047619047619,,1,4,1768785198.9420166
1768785198949.829,1435.164835164835,,1,4,1768785198.949829
1768785198957.6416,1446.153846153846,,1,4,1768785198.9576416
1768785198965.454,1462.2710622710622,,1,4,1768785198.965454
1768785198973.2666,1471.062271062271,,1,4,1768785198.9732666
1768785198981.079,1473.992673992674,,1,4,1768785198.981079
1768785198988.8916,1473.992673992674,,1,4,1768785198.9888916
1768785198996.704,1471.062271062271,,1,4,1768785198.996704
1768785199004.5166,1468.131868131868,,1,4,1768785199.0045166
1768785199012.329,1468.131868131868,,1,4,1768785199.012329
1768785199020.1416,1463.7362637362637,,1,4,1768785199.0201416
1768785199027.954,1458.6080586080584,,1,4,1768785199.027954
1768785199035.7666,1456.4102564102564,,1,4,1768785199.0357666
1768785199043.579,1454.9450549450548,,1,4,1768785199.043579
1768785199051.3916,1451.2820512820513,,1,4,1768785199.0513916
1768785199059.204,1446.8864468864467,,1,4,1768785199.059204
1768785199067.0166,1442.4908424908424,,1,4,1768785199.0670166
1768785199074.829,1435.8974358974358,,1,4,1768785199.074829
1768785199082.6416,1432.9670329670328,,1,4,1768785199.0826416
1768785199090.454,1431.5018315018317,,1,4,1768785199.090454
1768785199098.2666,1424.9084249084249,,1,4,1768785199.0982666
1768785199106.079,1424.175824175824,,1,4,1768785199.106079
1768785199113.8916,1420.5128205128203,,1,4,1768785199.1138916
1768785199121.704,1420.5128205128203,,1,4,1768785199.121704
1768785199129.5166,1421.9780219780218,,1,4,1768785199.1295166
1768785199137.329,1419.047619047619,,1,4,1768785199.137329
1768785199145.1416,1416.117216117216,,1,4,1768785199.1451416
1768785199152.954,1416.117216117216,,1,4,1768785199.152954
1768785199160.7666,1416.117216117216,,1,4,1768785199.1607666
1768785199168.579,1415.3846153846152,,1,4,1768785199.168579
1768785199176.3916,1413.9194139194135,,1,4,1768785199.1763916
1768785199184.204,1411.7216117216117,,1,4,1768785199.184204
1768785199192.0166,1412.4542124542124,,1,4,1768785199.1920166
1768785199199.829,1410.989010989011,,1,4,1768785199.199829
1768785199207.6416,1413.9194139194135,,1,4,1768785199.2076416
1768785199215.454,1418.3150183150185,,1,4,1768785199.215454
1768785199223.2666,1418.3150183150185,,1,4,1768785199.2232666
1768785199231.079,1420.5128205128203,,1,4,1768785199.231079
1768785199238.8916,1422.7106227106226,,1,4,1768785199.2388916
1768785199246.704,1424.9084249084249,,1,4,1768785199.246704
1768785199254.5166,1427.106227106227,,1,4,1768785199.2545166
1768785199262.329,1425.6410256410256,,1,4,1768785199.262329
1768785199270.1416,1422.7106227106226,,1,4,1768785199.2701416
1768785199277.954,1420.5128205128203,,1,4,1768785199.277954
1768785199285.7666,1415.3846153846152,,1,4,1768785199.2857666
1768785199293.579,1410.2564102564102,,1,4,1768785199.293579
1768785199301.3916,1405.128205128205,,1,4,1768785199.3013916
1768785199309.204,1402.9304029304028,,1,4,1768785199.309204
1768785199317.0166,1402.9304029304028,,1,4,1768785199.3170166
1768785199324.829,1402.9304029304028,,1,4,1768785199.324829
1768785199332.6416,1398.5347985347985,,1,4,1768785199.3326416
1768785199340.454,1393.4065934065934,,1,4,1768785199.340454
1768785199348.2666,1387.5457875457876,,1,4,1768785199.3482666
1768785199356.079,1383.150183150183,,1,4,1768785199.356079
1768785199363.8916,1376.5567765567764,,1,4,1768785199.3638916
1768785199371.704,1369.230769230769,,1,4,1768785199.371704
1768785199379.5166,1360.4395604395604,,1,4,1768785199.3795166
1768785199387.329,1350.18315018315,,1,4,1768785199.387329
1768785199395.1416,1340.6593406593406,,1,4,1768785199.3951416
1768785199402.954,1335.5311355311355,,1,4,1768785199.402954
1768785199410.7666,1332.6007326007325,,1,4,1768785199.4107666
1768785199418.579,1333.3333333333333,,1,4,1768785199.418579
1768785199426.3916,1330.4029304029302,,1,4,1768785199.4263916
1768785199434.204,1329.6703296703297,,1,4,1768785199.434204
1768785199442.0166,1328.2051282051282,,1,4,1768785199.4420166
1768785199449.829,1330.4029304029302,,1,4,1768785199.449829
1768785199457.6416,1336.9963369963368,,1,4,1768785199.4576416
1768785199465.454,1340.6593406593406,,1,4,1768785199.465454
1768785199473.2666,1342.857142857143,,1,4,1768785199.4732666
1768785199481.079,1347.2527472527472,,1,4,1768785199.481079
1768785199488.8916,1347.985347985348,,1,4,1768785199.4888916
1768785199496.704,1348.7179487179487,,1,4,1768785199.496704
1768785199504.5166,1349.4505494505493,,1,4,1768785199.5045166
1768785199512.329,1350.9157509157508,,1,4,1768785199.512329
1768785199520.1416,1347.985347985348,,1,4,1768785199.5201416
1768785199527.954,1347.985347985348,,1,4,1768785199.527954
1768785199535.7666,1348.7179487179487,,1,4,1768785199.5357666
1768785199543.579,1346.5201465201465,,1,4,1768785199.543579
1768785199551.3916,1344.3223443223442,,1,4,1768785199.5513916
1768785199559.204,1343.5897435897434,,1,4,1768785199.559204
1768785199567.0166,1341.3919413919414,,1,4,1768785199.5670166
1768785199574.829,1339.194139194139,,1,4,1768785199.574829
1768785199582.6416,1339.194139194139,,1,4,1768785199.5826416
1768785199590.454,1340.6593406593406,,1,4,1768785199.590454
1768785199598.2666,1341.3919413919414,,1,4,1768785199.5982666
1768785199606.079,1341.3919413919414,,1,4,1768785199.606079
1768785199613.8916,1338.4615384615383,,1,4,1768785199.6138916
1768785199621.704,1334.065934065934,,1,4,1768785199.621704
1768785199629.5166,1330.4029304029302,,0,-1,1768785199.6295166
1768785199637.329,1326.007326007326,,0,-1,1768785199.637329
1768785199645.1416,1322.3443223443223,,0,-1,1768785199.6451416
1768785199652.954,1320.14652014652,,0,-1,1768785199.652954
1768785199660.7666,1320.8791208791208,,0,-1,1768785199.6607666
1768785199668.579,1323.076923076923,,0,-1,1768785199.668579
1768785199676.3916,1328.937728937729,,0,-1,1768785199.6763916
1768785199684.204,1335.5311355311355,,0,-1,1768785199.684204
1768785199692.0166,1343.5897435897434,,0,-1,1768785199.6920166
1768785199699.829,1356.043956043956,,0,-1,1768785199.699829
1768785199707.6416,1370.6959706959706,,0,-1,1768785199.7076416
1768785199715.454,1383.150183150183,,0,-1,1768785199.715454
1768785199723.2666,1397.069597069597,,0,-1,1768785199.7232666
1768785199731.079,1408.058608058608,,0,-1,1768785199.731079
1768785199738.8916,1419.047619047619,,0,-1,1768785199.7388916
1768785199746.704,1427.106227106227,,0,-1,1768785199.746704
1768785199754.5166,1432.2344322344322,,0,-1,1768785199.7545166
1768785199762.329,1436.6300366300366,,0,-1,1768785199.762329
1768785199770.1416,1441.7582417582416,,0,-1,1768785199.7701416
1768785199777.954,1444.688644688645,,0,-1,1768785199.777954
1768785199785.7666,1447.6190476190477,,0,-1,1768785199.7857666
1768785199793.579,1448.3516483516482,,0,-1,1768785199.793579
1768785199801.3916,1443.956043956044,,0,-1,1768785199.8013916
1768785199809.204,1438.8278388278388,,0,-1,1768785199.809204
1768785199817.0166,1435.164835164835,,0,-1,1768785199.8170166
1768785199824.829,1433.6996336996335,,0,-1,1768785199.824829
1768785199832.6416,1430.03663003663,,0,-1,1768785199.8326416
1768785199840.454,1423.4432234432234,,0,-1,1768785199.840454
1768785199848.2666,1417.5824175824175,,0,-1,1768785199.8482666
1768785199856.079,1413.9194139194135,,0,-1,1768785199.856079
1768785199863.8916,1408.058608058608,,0,-1,1768785199.8638916
1768785199871.704,1405.128205128205,,0,-1,1768785199.871704
1768785199879.5166,1403.6630036630036,,0,-1,1768785199.8795166
1768785199887.329,1402.197802197802,,0,-1,1768785199.887329
1768785199895.1416,1399.2673992673992,,0,-1,1768785199.8951416
1768785199902.954,1394.8717948717947,,0,-1,1768785199.902954
1768785199910.7666,1390.4761904761904,,0,-1,1768785199.9107666
1768785199918.579,1383.150183150183,,0,-1,1768785199.918579
1768785199926.3916,1375.8241758241757,,0,-1,1768785199.9263916
1768785199934.204,1372.8937728937728,,0,-1,1768785199.934204
1768785199942.0166,1373.6263736263736,,0,-1,1768785199.9420166
1768785199949.829,1375.8241758241757,,0,-1,1768785199.949829
1768785199957.6416,1380.952380952381,,0,-1,1768785199.9576416
1768785199965.454,1385.3479853479853,,0,-1,1768785199.965454
1768785199973.2666,1389.0109890109889,,0,-1,1768785199.9732666
1768785199981.079,1392.6739926739926,,0,-1,1768785199.981079
1768785199988.8916,1394.139194139194,,0,-1,1768785199.9888916
1768785199996.704,1397.069597069597,,0,-1,1768785199.996704
1768785200004.5166,1397.8021978021975,,0,-1,1768785200.0045166
1768785200012.329,1397.069597069597,,0,-1,1768785200.012329
1768785200020.1416,1395.6043956043954,,0,-1,1768785200.0201416
1768785200027.954,1394.139194139194,,0,-1,1768785200.027954
1768785200035.7666,1391.2087912087911,,0,-1,1768785200.0357666
1768785200043.579,1388.278388278388,,0,-1,1768785200.043579
1768785200051.3916,1386.8131868131868,,0,-1,1768785200.0513916
1768785200059.204,1381.6849816849815,,0,-1,1768785200.059204
1768785200067.0166,1369.9633699633698,,0,-1,1768785200.0670166
1768785200074.829,1355.311355311355,,0,-1,1768785200.074829
1768785200082.6416,1344.3223443223442,,0,-1,1768785200.0826416
1768785200090.454,1336.9963369963368,,0,-1,1768785200.090454
1768785200098.2666,1335.5311355311355,,0,-1,1768785200.0982666
1768785200106.079,1336.9963369963368,,0,-1,1768785200.106079
1768785200113.8916,1339.194139194139,,0,-1,1768785200.1138916
1768785200121.704,1339.92673992674,,0,-1,1768785200.121704
1768785200129.5166,1339.92673992674,,0,-1,1768785200.1295166
1768785200137.329,1340.6593406593406,,0,-1,1768785200.137329
1768785200145.1416,1343.5897435897434,,0,-1,1768785200.1451416
1768785200152.954,1347.985347985348,,0,-1,1768785200.152954
1768785200160.7666,1350.9157509157508,,0,-1,1768785200.1607666
1768785200168.579,1356.043956043956,,0,-1,1768785200.168579
1768785200176.3916,1359.7069597069597,,0,-1,1768785200.1763916
1768785200184.204,1362.6373626373625,,0,-1,1768785200.184204
1768785200192.0166,1361.1721611721612,,0,-1,1768785200.1920166
1768785200199.829,1359.7069597069597,,0,-1,1768785200.199829
1768785200207.6416,1356.043956043956,,0,-1,1768785200.2076416
1768785200215.454,1353.113553113553,,0,-1,1768785200.215454
1768785200223.2666,1347.985347985348,,0,-1,1768785200.2232666
1768785200231.079,1343.5897435897434,,0,-1,1768785200.231079
1768785200238.8916,1337.7289377289376,,0,-1,1768785200.2388916
1768785200246.704,1332.6007326007325,,0,-1,1768785200.246704
1768785200254.5166,1328.2051282051282,,0,-1,1768785200.2545166
1768785200262.329,1322.3443223443223,,0,-1,1768785200.262329
1768785200270.1416,1317.9487179487178,,0,-1,1768785200.2701416
1768785200277.954,1315.7509157509155,,0,-1,1768785200.277954
1768785200285.7666,1314.2857142857142,,0,-1,1768785200.2857666
1768785200293.579,1312.087912087912,,0,-1,1768785200.293579
1768785200301.3916,1315.018315018315,,0,-1,1768785200.3013916
1768785200309.204,1313.5531135531137,,0,-1,1768785200.309204
1768785200317.0166,1312.087912087912,,0,-1,1768785200.3170166
1768785200324.829,1310.6227106227104,,0,-1,1768785200.324829
1768785200332.6416,1310.6227106227104,,0,-1,1768785200.3326416
1768785200340.454,1312.8205128205127,,0,-1,1768785200.340454
1768785200348.2666,1317.216117216117,,0,-1,1768785200.3482666
1768785200356.079,1320.14652014652,,0,-1,1768785200.356079
1768785200363.8916,1323.8095238095236,,0,-1,1768785200.3638916
1768785200371.704,1326.739926739927,,0,-1,1768785200.371704
1768785200379.5166,1327.4725274725274,,0,-1,1768785200.3795166
1768785200387.329,1327.4725274725274,,0,-1,1768785200.387329
1768785200395.1416,1328.2051282051282,,0,-1,1768785200.3951416
1768785200402.954,1330.4029304029302,,0,-1,1768785200.402954
1768785200410.7666,1334.065934065934,,0,-1,1768785200.4107666
1768785200418.579,1334.065934065934,,0,-1,1768785200.418579
1768785200426.3916,1336.263736263736,,0,-1,1768785200.4263916
1768785200434.204,1342.857142857143,,0,-1,1768785200.434204
1768785200442.0166,1354.5787545787546,,0,-1,1768785200.4420166
1768785200449.829,1364.8351648351647,,0,-1,1768785200.449829
1768785200457.6416,1373.6263736263736,,0,-1,1768785200.4576416
1768785200465.454,1380.2197802197802,,0,-1,1768785200.465454
1768785200473.2666,1383.150183150183,,0,-1,1768785200.4732666
1768785200481.079,1387.5457875457876,,0,-1,1768785200.481079
1768785200488.8916,1392.6739926739926,,0,-1,1768785200.4888916
1768785200496.704,1400.0,,0,-1,1768785200.496704
1768785200504.5166,1407.3260073260071,,0,-1,1768785200.5045166
1768785200512.329,1415.3846153846152,,0,-1,1768785200.512329
1768785200520.1416,1421.9780219780218,,0,-1,1768785200.5201416
1768785200527.954,1427.106227106227,,0,-1,1768785200.527954
1768785200535.7666,1430.7692307692307,,0,-1,1768785200.5357666
1768785200543.579,1432.2344322344322,,0,-1,1768785200.543579
1768785200551.3916,1432.2344322344322,,0,-1,1768785200.5513916
1768785200559.204,1434.4322344322345,,0,-1,1768785200.559204
1768785200567.0166,1437.362637362637,,0,-1,1768785200.5670166
1768785200574.829,1438.095238095238,,0,-1,1768785200.574829
1768785200582.6416,1435.164835164835,,0,-1,1768785200.5826416
1768785200590.454,1431.5018315018317,,0,-1,1768785200.590454
1768785200598.2666,1427.8388278388277,,0,-1,1768785200.5982666
1768785200606.079,1425.6410256410256,,0,-1,1768785200.606079
1768785200613.8916,1424.9084249084249,,0,-1,1768785200.6138916
1768785200621.704,1427.8388278388277,,0,-1,1768785200.621704
1768785200629.5166,1432.2344322344322,,0,-1,1768785200.6295166
1768785200637.329,1436.6300366300366,,0,-1,1768785200.637329
1768785200645.1416,1440.29304029304,,0,-1,1768785200.6451416
1768785200652.954,1440.29304029304,,0,-1,1768785200.652954
1768785200660.7666,1441.0256410256409,,0,-1,1768785200.6607666
1768785200668.579,1441.0256410256409,,0,-1,1768785200.668579
1768785200676.3916,1438.8278388278388,,0,-1,1768785200.6763916
1768785200684.204,1433.6996336996335,,0,-1,1768785200.684204
1768785200692.0166,1425.6410256410256,,0,-1,1768785200.6920166
1768785200699.829,1415.3846153846152,,0,-1,1768785200.699829
1768785200707.6416,1402.9304029304028,,0,-1,1768785200.7076416
1768785200715.454,1389.7435897435896,,0,-1,1768785200.715454
1768785200723.2666,1381.6849816849815,,0,-1,1768785200.7232666
1768785200731.079,1380.2197802197802,,0,-1,1768785200.731079
1768785200738.8916,1383.150183150183,,0,-1,1768785200.7388916
1768785200746.704,1386.8131868131868,,0,-1,1768785200.746704
1768785200754.5166,1387.5457875457876,,0,-1,1768785200.7545166
1768785200762.329,1387.5457875457876,,0,-1,1768785200.762329
1768785200770.1416,1384.6153846153843,,0,-1,1768785200.7701416
1768785200777.954,1381.6849816849815,,0,-1,1768785200.777954
1768785200785.7666,1378.7545787545787,,0,-1,1768785200.7857666
1768785200793.579,1376.5567765567764,,0,-1,1768785200.793579
1768785200801.3916,1372.8937728937728,,0,-1,1768785200.8013916
1768785200809.204,1367.7655677655678,,0,-1,1768785200.809204
1768785200817.0166,1364.102564102564,,0,-1,1768785200.8170166
1768785200824.829,1362.6373626373625,,0,-1,1768785200.824829
1768785200832.6416,1364.8351648351647,,0,-1,1768785200.8326416
1768785200840.454,1369.230769230769,,0,-1,1768785200.840454
1768785200848.2666,1371.428571428571,,0,-1,1768785200.8482666
1768785200856.079,1372.8937728937728,,0,-1,1768785200.856079
1768785200863.8916,1374.3589743589744,,0,-1,1768785200.8638916
1768785200871.704,1376.5567765567764,,0,-1,1768785200.871704
1768785200879.5166,1378.7545787545787,,0,-1,1768785200.8795166
1768785200887.329,1379.4871794871794,,0,-1,1768785200.887329
1768785200895.1416,1379.4871794871794,,0,-1,1768785200.8951416
1768785200902.954,1376.5567765567764,,0,-1,1768785200.902954
1768785200910.7666,1372.161172161172,,0,-1,1768785200.9107666
1768785200918.579,1368.4981684981683,,0,-1,1768785200.918579
1768785200926.3916,1367.032967032967,,0,-1,1768785200.9263916
1768785200934.204,1367.032967032967,,0,-1,1768785200.934204
1768785200942.0166,1365.5677655677655,,0,-1,1768785200.9420166
1768785200949.829,1364.102564102564,,0,-1,1768785200.949829
1768785200957.6416,1362.6373626373625,,0,-1,1768785200.9576416
1768785200965.454,1358.974358974359,,0,-1,1768785200.965454
1768785200973.2666,1355.311355311355,,0,-1,1768785200.9732666
1768785200981.079,1349.4505494505493,,0,-1,1768785200.981079
