Shimmer_6815_Timestamp_Unix_CAL,Shimmer_6815_PPG_A13_CAL,Unnamed: 2,inhale,inhale_id,epoch_sec
1768872616442.0776,99.63369963369962,,1,1,1768872616.4420776
1768872616449.89,238.09523809523807,,1,1,1768872616.44989
1768872616457.7026,394.87179487179486,,1,1,1768872616.4577026
1768872616465.5151,553.113553113553,,1,1,1768872616.4655151
1768872616473.3276,700.3663003663003,,1,1,1768872616.4733276
1768872616481.14,829.3040293040292,,1,1,1768872616.48114
1768872616488.9526,942.8571428571428,,1,1,1768872616.4889526
1768872616496.7651,1040.29304029304,,1,1,1768872616.4967651
1768872616504.5776,1120.14652014652,,1,1,1768872616.5045776
1768872616512.39,1182.4175824175825,,1,1,1768872616.51239
1768872616520.2026,1230.7692307692307,,1,1,1768872616.5202026
1768872616528.0151,1268.131868131868,,1,1,1768872616.5280151
1768872616535.8276,1298.9010989010987,,1,1,1768872616.5358276
1768872616543.64,1324.5421245421244,,1,1,1768872616.54364
1768872616551.4526,1344.3223443223442,,1,1,1768872616.5514526
1768872616559.2651,1358.974358974359,,1,1,1768872616.5592651
1768872616567.0776,1370.6959706959706,,1,1,1768872616.5670776
1768872616574.89,1375.8241758241757,,1,1,1768872616.57489
1768872616582.7026,1375.8241758241757,,1,1,1768872616.5827026
1768872616590.5151,1371.428571428571,,1,1,1768872616.5905151
1768872616598.3276,1364.8351648351647,,1,1,1768872616.5983276
1768872616606.14,1357.5091575091574,,1,1,1768872616.60614
1768872616613.9526,1349.4505494505493,,1,1,1768872616.6139526
1768872616621.7651,1342.857142857143,,1,1,1768872616.6217651
1768872616629.5776,1336.9963369963368,,1,1,1768872616.6295776
1768872616637.39,1329.6703296703297,,1,1,1768872616.63739
1768872616645.2026,1323.8095238095236,,1,1,1768872616.6452026
1768872616653.0151,1318.6813186813183,,1,1,1768872616.6530151
1768872616660.8276,1310.6227106227104,,1,1,1768872616.6608276
1768872616668.64,1305.4945054945051,,1,1,1768872616.66864
1768872616676.4526,1303.2967032967033,,1,1,1768872616.6764526
1768872616684.2651,1301.8315018315018,,1,1,1768872616.6842651
1768872616692.0776,1302.5641025641023,,1,1,1768872616.6920776
1768872616699.89,1301.8315018315018,,1,1,1768872616.69989
1768872616707.7026,1301.098901098901,,1,1,1768872616.7077026
1768872616715.5151,1299.6336996336995,,1,1,1768872616.7155151
1768872616723.3276,1297.4358974358977,,1,1,1768872616.7233276
1768872616731.14,1292.3076923076922,,1,1,1768872616.73114
1768872616738.9526,1284.9816849816848,,1,1,1768872616.7389526
1768872616746.7651,1279.120879120879,,1,1,1768872616.7467651
1768872616754.5776,1274.7252747252746,,1,1,1768872616.7545776
1768872616762.39,1269.5970695970695,,1,1,1768872616.76239
1768872616770.2026,1262.2710622710622,,1,1,1768872616.7702026
1768872616778.0151,1257.142857142857,,1,1,1768872616.7780151
1768872616785.8276,1243.956043956044,,1,1,1768872616.7858276
1768872616793.64,1224.175824175824,,1,1,1768872616.79364
1768872616801.4526,1210.989010989011,,1,1,1768872616.8014526
1768872616809.2651,1197.8021978021975,,1,1,1768872616.8092651
1768872616817.0776,1183.8827838827838,,1,1,1768872616.8170776
1768872616824.89,1176.5567765567764,,1,1,1768872616.82489
1768872616832.7026,1172.161172161172,,1,1,1768872616.8327026
1768872616840.5151,1162.6373626373625,,1,1,1768872616.8405151
1768872616848.3276,1154.5787545787546,,1,1,1768872616.8483276
1768872616856.14,1150.9157509157508,,1,1,1768872616.85614
1768872616863.9526,1146.5201465201465,,1,1,1768872616.8639526
1768872616871.7651,1149.4505494505493,,1,1,1768872616.8717651
1768872616879.5776,1161.1721611721612,,1,1,1768872616.8795776
1768872616887.39,1181.6849816849815,,1,1,1768872616.88739
1768872616895.2026,1212.4542124542124,,1,1,1768872616.8952026
1768872616903.0151,1249.084249084249,,1,1,1768872616.9030151
1768872616910.8276,1290.8424908424909,,1,1,1768872616.9108276
1768872616918.64,1331.8681318681315,,1,1,1768872616.91864
1768872616926.4526,1374.3589743589744,,1,1,1768872616.9264526
1768872616934.2651,1410.2564102564102,,1,1,1768872616.9342651
1768872616942.0776,1452.014652014652,,1,1,1768872616.9420776
1768872616949.89,1482.7838827838827,,1,1,1768872616.94989
1768872616957.7026,1512.087912087912,,1,1,1768872616.9577026
1768872616965.5151,1535.5311355311355,,1,1,1768872616.9655151
1768872616973.3276,1549.4505494505493,,1,1,1768872616.9733276
1768872616981.14,1560.4395604395604,,1,1,1768872616.98114
1768872616988.9526,1567.032967032967,,1,1,1768872616.9889526
1768872616996.7651,1565.5677655677655,,1,1,1768872616.9967651
1768872617004.5776,1561.1721611721612,,1,1,1768872617.0045776
1768872617012.39,1552.3809523809523,,1,1,1768872617.01239
1768872617020.2026,1534.065934065934,,1,1,1768872617.0202026
1768872617028.0151,1512.087912087912,,1,1,1768872617.0280151
1768872617035.8276,1489.3772893772891,,1,1,1768872617.0358276
1768872617043.64,1466.6666666666663,,1,1,1768872617.04364
1768872617051.4526,1440.29304029304,,1,1,1768872617.0514526
1768872617059.2651,1413.9194139194135,,1,1,1768872617.0592651
1768872617067.0776,1388.278388278388,,1,1,1768872617.0670776
1768872617074.89,1359.7069597069597,,1,1,1768872617.07489
1768872617082.7026,1331.8681318681315,,1,1,1768872617.0827026
1768872617090.5151,1311.3553113553112,,1,1,1768872617.0905151
1768872617098.3276,1290.8424908424909,,1,1,1768872617.0983276
1768872617106.14,1271.7948717948716,,1,1,1768872617.10614
1768872617113.9526,1262.2710622710622,,1,1,1768872617.1139526
1768872617121.7651,1253.479853479853,,1,1,1768872617.1217651
1768872617129.5776,1249.8168498168498,,1,1,1768872617.1295776
1768872617137.39,1252.7472527472526,,1,1,1768872617.13739
1768872617145.2026,1255.6776556776556,,1,1,1768872617.1452026
1768872617153.0151,1262.2710622710622,,1,1,1768872617.1530151
1768872617160.8276,1268.8644688644688,,1,1,1768872617.1608276
1768872617168.64,1271.7948717948716,,1,1,1768872617.16864
1768872617176.4526,1276.190476190476,,1,1,1768872617.1764526
1768872617184.2651,1277.6556776556777,,1,1,1768872617.1842651
1768872617192.0776,1273.992673992674,,1,1,1768872617.1920776
1768872617199.89,1270.3296703296703,,1,1,1768872617.19989
1768872617207.7026,1262.2710622710622,,1,1,1768872617.2077026
1768872617215.5151,1252.7472527472526,,1,1,1768872617.2155151
1768872617223.3276,1243.2234432234432,,1,1,1768872617.2233276
1768872617231.14,1237.362637362637,,1,1,1768872617.23114
1768872617238.9526,1230.7692307692307,,1,1,1768872617.2389526
1768872617246.7651,1224.175824175824,,1,1,1768872617.2467651
1768872617254.5776,1221.245421245421,,1,1,1768872617.2545776
1768872617262.39,1225.6410256410256,,1,1,1768872617.26239
1768872617270.2026,1231.5018315018317,,1,1,1768872617.2702026
1768872617278.0151,1235.8974358974358,,1,1,1768872617.2780151
1768872617285.8276,1238.095238095238,,1,1,1768872617.2858276
1768872617293.64,1235.8974358974358,,1,1,1768872617.29364
1768872617301.4526,1231.5018315018317,,1,1,1768872617.3014526
1768872617309.2651,1226.3736263736264,,1,1,1768872617.3092651
1768872617317.0776,1222.7106227106226,,1,1,1768872617.3170776
1768872617324.89,1218.3150183150185,,1,1,1768872617.32489
1768872617332.7026,1215.3846153846152,,1,1,1768872617.3327026
1768872617340.5151,1212.4542124542124,,1,1,1768872617.3405151
1768872617348.3276,1209.5238095238094,,1,1,1768872617.3483276
1768872617356.14,1211.7216117216117,,1,1,1768872617.35614
1768872617363.9526,1209.5238095238094,,1,1,1768872617.3639526
1768872617371.7651,1202.9304029304028,,1,1,1768872617.3717651
1768872617379.5776,1197.069597069597,,1,1,1768872617.3795776
1768872617387.39,1189.7435897435896,,1,1,1768872617.38739
1768872617395.2026,1180.952380952381,,1,1,1768872617.3952026
1768872617403.0151,1173.6263736263736,,1,1,1768872617.4030151
1768872617410.8276,1170.6959706959706,,1,1,1768872617.4108276
1768872617418.64,1173.6263736263736,,1,1,1768872617.41864
1768872617426.4526,1180.952380952381,,1,1,1768872617.4264526
1768872617434.2651,1191.941391941392,,0,-1,1768872617.4342651
1768872617442.0776,1207.3260073260074,,0,-1,1768872617.4420776
1768872617449.89,1227.8388278388277,,0,-1,1768872617.44989
1768872617457.7026,1252.7472527472526,,0,-1,1768872617.4577026
1768872617465.5151,1282.7838827838827,,0,-1,1768872617.4655151
1768872617473.3276,1312.8205128205127,,0,-1,1768872617.4733276
1768872617481.14,1343.5897435897434,,0,-1,1768872617.48114
1768872617488.9526,1375.091575091575,,0,-1,1768872617.4889526
1768872617496.7651,1403.6630036630036,,0,-1,1768872617.4967651
1768872617504.5776,1428.5714285714284,,0,-1,1768872617.5045776
1768872617512.39,1449.084249084249,,0,-1,1768872617.51239
1768872617520.2026,1464.4688644688645,,0,-1,1768872617.5202026
1768872617528.0151,1473.260073260073,,0,-1,1768872617.5280151
1768872617535.8276,1477.6556776556777,,0,-1,1768872617.5358276
1768872617543.64,1475.4578754578754,,0,-1,1768872617.54364
1768872617551.4526,1472.5274725274724,,0,-1,1768872617.5514526
1768872617559.2651,1467.3992673992673,,0,-1,1768872617.5592651
1768872617567.0776,1460.805860805861,,0,-1,1768872617.5670776
1768872617574.89,1452.7472527472526,,0,-1,1768872617.57489
1768872617582.7026,1444.688644688645,,0,-1,1768872617.5827026
1768872617590.5151,1433.6996336996335,,0,-1,1768872617.5905151
1768872617598.3276,1421.9780219780218,,0,-1,1768872617.5983276
1768872617606.14,1413.1868131868132,,0,-1,1768872617.60614
1768872617613.9526,1404.3956043956043,,0,-1,1768872617.6139526
1768872617621.7651,1389.0109890109889,,0,-1,1768872617.6217651
1768872617629.5776,1370.6959706959706,,0,-1,1768872617.6295776
1768872617637.39,1350.9157509157508,,0,-1,1768872617.63739
1768872617645.2026,1333.3333333333333,,0,-1,1768872617.6452026
1768872617653.0151,1320.8791208791208,,0,-1,1768872617.6530151
1768872617660.8276,1309.1575091575091,,0,-1,1768872617.6608276
1768872617668.64,1299.6336996336995,,0,-1,1768872617.66864
1768872617676.4526,1291.5750915750914,,0,-1,1768872617.6764526
1768872617684.2651,1288.6446886446886,,0,-1,1768872617.6842651
1768872617692.0776,1286.4468864468863,,0,-1,1768872617.6920776
1768872617699.89,1283.5164835164835,,0,-1,1768872617.69989
1768872617707.7026,1277.6556776556777,,0,-1,1768872617.7077026
1768872617715.5151,1272.5274725274724,,0,-1,1768872617.7155151
1768872617723.3276,1269.5970695970695,,0,-1,1768872617.7233276
1768872617731.14,1265.2014652014652,,0,-1,1768872617.73114
1768872617738.9526,1257.142857142857,,0,-1,1768872617.7389526
1768872617746.7651,1252.014652014652,,0,-1,1768872617.7467651
1768872617754.5776,1251.2820512820513,,0,-1,1768872617.7545776
1768872617762.39,1244.688644688645,,0,-1,1768872617.76239
1768872617770.2026,1243.2234432234432,,0,-1,1768872617.7702026
1768872617778.0151,1242.4908424908424,,0,-1,1768872617.7780151
1768872617785.8276,1240.29304029304,,0,-1,1768872617.7858276
1768872617793.64,1240.29304029304,,0,-1,1768872617.79364
1768872617801.4526,1239.5604395604396,,0,-1,1768872617.8014526
1768872617809.2651,1233.6996336996335,,0,-1,1768872617.8092651
1768872617817.0776,1232.2344322344322,,0,-1,1768872617.8170776
1768872617824.89,1224.9084249084249,,0,-1,1768872617.82489
1768872617832.7026,1219.047619047619,,0,-1,1768872617.8327026
1768872617840.5151,1213.9194139194135,,0,-1,1768872617.8405151
1768872617848.3276,1205.8608058608058,,0,-1,1768872617.8483276
1768872617856.14,1204.3956043956043,,0,-1,1768872617.85614
1768872617863.9526,1198.5347985347985,,0,-1,1768872617.8639526
1768872617871.7651,1196.3369963369962,,0,-1,1768872617.8717651
1768872617879.5776,1191.941391941392,,0,-1,1768872617.8795776
1768872617887.39,1182.4175824175825,,0,-1,1768872617.88739
1768872617895.2026,1175.0915750915751,,0,-1,1768872617.8952026
1768872617903.0151,1172.8937728937728,,0,-1,1768872617.9030151
1768872617910.8276,1168.4981684981683,,0,-1,1768872617.9108276
1768872617918.64,1168.4981684981683,,0,-1,1768872617.91864
1768872617926.4526,1166.3003663003662,,0,-1,1768872617.9264526
1768872617934.2651,1168.4981684981683,,0,-1,1768872617.9342651
1768872617942.0776,1177.2893772893772,,0,-1,1768872617.9420776
1768872617949.89,1183.150183150183,,0,-1,1768872617.94989
1768872617957.7026,1192.6739926739926,,0,-1,1768872617.9577026
1768872617965.5151,1199.2673992673992,,0,-1,1768872617.9655151
1768872617973.3276,1212.4542124542124,,0,-1,1768872617.9733276
1768872617981.14,1222.7106227106226,,0,-1,1768872617.98114
1768872617988.9526,1238.8278388278388,,0,-1,1768872617.9889526
1768872617996.7651,1254.9450549450548,,0,-1,1768872617.9967651
1768872618004.5776,1276.190476190476,,0,-1,1768872618.0045776
1768872618012.39,1295.970695970696,,0,-1,1768872618.01239
1768872618020.2026,1324.5421245421244,,0,-1,1768872618.0202026
1768872618028.0151,1350.9157509157508,,0,-1,1768872618.0280151
1768872618035.8276,1381.6849816849815,,0,-1,1768872618.0358276
1768872618043.64,1406.5934065934066,,0,-1,1768872618.04364
1768872618051.4526,1433.6996336996335,,0,-1,1768872618.0514526
1768872618059.2651,1455.6776556776556,,0,-1,1768872618.0592651
1768872618067.0776,1474.7252747252746,,0,-1,1768872618.0670776
1768872618074.89,1490.10989010989,,0,-1,1768872618.07489
1768872618082.7026,1495.970695970696,,0,-1,1768872618.0827026
1768872618090.5151,1501.8315018315018,,0,-1,1768872618.0905151
1768872618098.3276,1504.7619047619046,,0,-1,1768872618.0983276
1768872618106.14,1507.6923076923076,,0,-1,1768872618.10614
1768872618113.9526,1515.018315018315,,0,-1,1768872618.1139526
1768872618121.7651,1517.9487179487178,,0,-1,1768872618.1217651
1768872618129.5776,1514.2857142857142,,0,-1,1768872618.1295776
1768872618137.39,1512.8205128205127,,0,-1,1768872618.13739
1768872618145.2026,1504.7619047619046,,0,-1,1768872618.1452026
1768872618153.0151,1496.7032967032967,,0,-1,1768872618.1530151
1768872618160.8276,1483.5164835164835,,0,-1,1768872618.1608276
1768872618168.64,1465.201465201465,,0,-1,1768872618.16864
1768872618176.4526,1448.3516483516482,,0,-1,1768872618.1764526
1768872618184.2651,1429.3040293040292,,0,-1,1768872618.1842651
1768872618192.0776,1405.128205128205,,0,-1,1768872618.1920776
1768872618199.89,1383.150183150183,,0,-1,1768872618.19989
1768872618207.7026,1363.3699633699632,,0,-1,1768872618.2077026
1768872618215.5151,1345.054945054945,,0,-1,1768872618.2155151
1768872618223.3276,1331.8681318681315,,0,-1,1768872618.2233276
1768872618231.14,1327.4725274725274,,0,-1,1768872618.23114
1768872618238.9526,1332.6007326007325,,0,-1,1768872618.2389526
1768872618246.7651,1339.92673992674,,0,-1,1768872618.2467651
1768872618254.5776,1345.054945054945,,0,-1,1768872618.2545776
1768872618262.39,1353.113553113553,,0,-1,1768872618.26239
1768872618270.2026,1361.1721611721612,,0,-1,1768872618.2702026
1768872618278.0151,1363.3699633699632,,0,-1,1768872618.2780151
1768872618285.8276,1361.1721611721612,,0,-1,1768872618.2858276
1768872618293.64,1360.4395604395604,,0,-1,1768872618.29364
1768872618301.4526,1359.7069597069597,,0,-1,1768872618.3014526
1768872618309.2651,1357.5091575091574,,0,-1,1768872618.3092651
1768872618317.0776,1347.985347985348,,0,-1,1768872618.3170776
1768872618324.89,1336.263736263736,,0,-1,1768872618.32489
1768872618332.7026,1324.5421245421244,,0,-1,1768872618.3327026
1768872618340.5151,1313.5531135531137,,0,-1,1768872618.3405151
1768872618348.3276,1301.8315018315018,,0,-1,1768872618.3483276
1768872618356.14,1287.9120879120878,,0,-1,1768872618.35614
1768872618363.9526,1274.7252747252746,,0,-1,1768872618.3639526
1768872618371.7651,1263.7362637362637,,0,-1,1768872618.3717651
1768872618379.5776,1257.875457875458,,0,-1,1768872618.3795776
1768872618387.39,1252.014652014652,,0,-1,1768872618.38739
1768872618395.2026,1249.084249084249,,0,-1,1768872618.3952026
1768872618403.0151,1247.6190476190477,,0,-1,1768872618.4030151
1768872618410.8276,1251.2820512820513,,0,-1,1768872618.4108276
1768872618418.64,1258.6080586080586,,0,-1,1768872618.41864
1768872618426.4526,1268.8644688644688,,0,-1,1768872618.4264526
1768872618434.2651,1278.3882783882782,,0,-1,1768872618.4342651
1768872618442.0776,1289.3772893772891,,0,-1,1768872618.4420776
1768872618449.89,1298.9010989010987,,0,-1,1768872618.44989
1768872618457.7026,1306.9597069597069,,0,-1,1768872618.4577026
1768872618465.5151,1312.8205128205127,,0,-1,1768872618.4655151
1768872618473.3276,1319.4139194139193,,0,-1,1768872618.4733276
1768872618481.14,1321.6117216117216,,0,-1,1768872618.48114
1768872618488.9526,1326.739926739927,,0,-1,1768872618.4889526
1768872618496.7651,1323.8095238095236,,0,-1,1768872618.4967651
1768872618504.5776,1315.018315018315,,0,-1,1768872618.5045776
1768872618512.39,1304.7619047619046,,0,-1,1768872618.51239
1768872618520.2026,1293.7728937728937,,0,-1,1768872618.5202026
1768872618528.0151,1285.7142857142856,,0,-1,1768872618.5280151
1768872618535.8276,1284.9816849816848,,0,-1,1768872618.5358276
1768872618543.64,1288.6446886446886,,0,-1,1768872618.54364
1768872618551.4526,1297.4358974358977,,0,-1,1768872618.5514526
1768872618559.2651,1309.1575091575091,,0,-1,1768872618.5592651
1768872618567.0776,1325.2747252747251,,0,-1,1768872618.5670776
1768872618574.89,1341.3919413919414,,0,-1,1768872618.57489
1768872618582.7026,1356.043956043956,,0,-1,1768872618.5827026
1768872618590.5151,1364.102564102564,,0,-1,1768872618.5905151
1768872618598.3276,1370.6959706959706,,0,-1,1768872618.5983276
1768872618606.14,1378.7545787545787,,0,-1,1768872618.60614
1768872618613.9526,1388.278388278388,,0,-1,1768872618.6139526
1768872618621.7651,1399.2673992673992,,0,-1,1768872618.6217651
1768872618629.5776,1405.8608058608058,,0,-1,1768872618.6295776
1768872618637.39,1409.5238095238094,,0,-1,1768872618.63739
1768872618645.2026,1410.989010989011,,0,-1,1768872618.6452026
1768872618653.0151,1410.2564102564102,,0,-1,1768872618.6530151
1768872618660.8276,1407.3260073260071,,0,-1,1768872618.6608276
1768872618668.64,1401.4652014652013,,0,-1,1768872618.66864
1768872618676.4526,1394.8717948717947,,0,-1,1768872618.6764526
1768872618684.2651,1384.6153846153843,,0,-1,1768872618.6842651
1768872618692.0776,1368.4981684981683,,0,-1,1768872618.6920776
1768872618699.89,1352.3809523809523,,0,-1,1768872618.69989
1768872618707.7026,1340.6593406593406,,0,-1,1768872618.7077026
1768872618715.5151,1331.8681318681315,,0,-1,1768872618.7155151
1768872618723.3276,1326.739926739927,,0,-1,1768872618.7233276
1768872618731.14,1323.076923076923,,0,-1,1768872618.73114
1768872618738.9526,1323.076923076923,,0,-1,1768872618.7389526
1768872618746.7651,1326.007326007326,,0,-1,1768872618.7467651
1768872618754.5776,1333.3333333333333,,0,-1,1768872618.7545776
1768872618762.39,1343.5897435897434,,0,-1,1768872618.76239
1768872618770.2026,1353.8461538461538,,0,-1,1768872618.7702026
1768872618778.0151,1364.102564102564,,0,-1,1768872618.7780151
1768872618785.8276,1376.5567765567764,,0,-1,1768872618.7858276
1768872618793.64,1389.7435897435896,,0,-1,1768872618.79364
1768872618801.4526,1403.6630036630036,,0,-1,1768872618.8014526
1768872618809.2651,1416.8498168498168,,0,-1,1768872618.8092651
1768872618817.0776,1431.5018315018317,,0,-1,1768872618.8170776
1768872618824.89,1452.014652014652,,0,-1,1768872618.82489
1768872618832.7026,1484.9816849816848,,0,-1,1768872618.8327026
1768872618840.5151,1528.937728937729,,0,-1,1768872618.8405151
1768872618848.3276,1575.8241758241757,,0,-1,1768872618.8483276
1768872618856.14,1619.7802197802196,,0,-1,1768872618.85614
1768872618863.9526,1660.805860805861,,0,-1,1768872618.8639526
1768872618871.7651,1694.5054945054944,,0,-1,1768872618.8717651
1768872618879.5776,1712.8205128205127,,0,-1,1768872618.8795776
1768872618887.39,1721.6117216117216,,0,-1,1768872618.88739
1768872618895.2026,1731.8681318681315,,0,-1,1768872618.8952026
1768872618903.0151,1741.3919413919414,,0,-1,1768872618.9030151
1768872618910.8276,1754.5787545787546,,0,-1,1768872618.9108276
1768872618918.64,1782.4175824175825,,0,-1,1768872618.91864
1768872618926.4526,1827.106227106227,,0,-1,1768872618.9264526
1768872618934.2651,1894.5054945054944,,0,-1,1768872618.9342651
1768872618942.0776,1975.824175824176,,0,-1,1768872618.9420776
1768872618949.89,2049.0842490842488,,0,-1,1768872618.94989
1768872618957.7026,2096.7032967032965,,0,-1,1768872618.9577026
1768872618965.5151,2120.14652014652,,0,-1,1768872618.9655151
1768872618973.3276,2123.076923076923,,0,-1,1768872618.9733276
1768872618981.14,2113.553113553113,,0,-1,1768872618.98114
1768872618988.9526,2090.842490842491,,0,-1,1768872618.9889526
1768872618996.7651,2063.7362637362635,,0,-1,1768872618.9967651
1768872619004.5776,2038.0952380952376,,0,-1,1768872619.0045776
1768872619012.39,2010.2564102564104,,0,-1,1768872619.01239
1768872619020.2026,1983.882783882784,,0,-1,1768872619.0202026
1768872619028.0151,1965.5677655677653,,0,-1,1768872619.0280151
1768872619035.8276,1944.322344322344,,0,-1,1768872619.0358276
1768872619043.64,1920.8791208791208,,0,-1,1768872619.04364
1768872619051.4526,1893.040293040293,,1,2,1768872619.0514526
1768872619059.2651,1848.351648351648,,1,2,1768872619.0592651
1768872619067.0776,1796.3369963369962,,1,2,1768872619.0670776
1768872619074.89,1734.065934065934,,1,2,1768872619.07489
1768872619082.7026,1673.992673992674,,1,2,1768872619.0827026
1768872619090.5151,1612.4542124542124,,1,2,1768872619.0905151
1768872619098.3276,1549.4505494505493,,1,2,1768872619.0983276
1768872619106.14,1495.2380952380952,,1,2,1768872619.10614
1768872619113.9526,1447.6190476190477,,1,2,1768872619.1139526
1768872619121.7651,1413.1868131868132,,1,2,1768872619.1217651
1768872619129.5776,1384.6153846153843,,1,2,1768872619.1295776
1768872619137.39,1361.904761904762,,1,2,1768872619.13739
1768872619145.2026,1344.3223443223442,,1,2,1768872619.1452026
1768872619153.0151,1319.4139194139193,,1,2,1768872619.1530151
1768872619160.8276,1298.9010989010987,,1,2,1768872619.1608276
1768872619168.64,1274.7252747252746,,1,2,1768872619.16864
1768872619176.4526,1255.6776556776556,,1,2,1768872619.1764526
1768872619184.2651,1229.3040293040292,,1,2,1768872619.1842651
1768872619192.0776,1211.7216117216117,,1,2,1768872619.1920776
1768872619199.89,1194.1391941391942,,1,2,1768872619.19989
1768872619207.7026,1186.8131868131868,,1,2,1768872619.2077026
1768872619215.5151,1180.952380952381,,1,2,1768872619.2155151
1768872619223.3276,1180.952380952381,,1,2,1768872619.2233276
1768872619231.14,1178.7545787545787,,1,2,1768872619.23114
1768872619238.9526,1175.0915750915751,,1,2,1768872619.2389526
1768872619246.7651,1160.4395604395604,,1,2,1768872619.2467651
1768872619254.5776,1142.124542124542,,1,2,1768872619.2545776
1768872619262.39,1123.076923076923,,1,2,1768872619.26239
1768872619270.2026,1109.1575091575091,,1,2,1768872619.2702026
1768872619278.0151,1105.4945054945051,,1,2,1768872619.2780151
1768872619285.8276,1117.9487179487178,,1,2,1768872619.2858276
1768872619293.64,1145.054945054945,,1,2,1768872619.29364
1768872619301.4526,1169.9633699633698,,1,2,1768872619.3014526
1768872619309.2651,1194.1391941391942,,1,2,1768872619.3092651
1768872619317.0776,1214.6520146520145,,1,2,1768872619.3170776
1768872619324.89,1222.7106227106226,,1,2,1768872619.32489
1768872619332.7026,1228.5714285714284,,1,2,1768872619.3327026
1768872619340.5151,1225.6410256410256,,1,2,1768872619.3405151
1768872619348.3276,1220.5128205128203,,1,2,1768872619.3483276
1768872619356.14,1216.8498168498168,,1,2,1768872619.35614
1768872619363.9526,1209.5238095238094,,1,2,1768872619.3639526
1768872619371.7651,1205.8608058608058,,1,2,1768872619.3717651
1768872619379.5776,1199.2673992673992,,1,2,1768872619.3795776
1768872619387.39,1191.2087912087911,,1,2,1768872619.38739
1768872619395.2026,1187.5457875457876,,1,2,1768872619.3952026
1768872619403.0151,1187.5457875457876,,1,2,1768872619.4030151
1768872619410.8276,1182.4175824175825,,1,2,1768872619.4108276
1768872619418.64,1175.0915750915751,,1,2,1768872619.41864
1768872619426.4526,1171.428571428571,,1,2,1768872619.4264526
1768872619434.2651,1164.8351648351647,,1,2,1768872619.4342651
1768872619442.0776,1163.3699633699632,,1,2,1768872619.4420776
1768872619449.89,1160.4395604395604,,1,2,1768872619.44989
1768872619457.7026,1156.7765567765566,,1,2,1768872619.4577026
1768872619465.5151,1157.5091575091574,,1,2,1768872619.4655151
1768872619473.3276,1161.1721611721612,,1,2,1768872619.4733276
1768872619481.14,1164.102564102564,,1,2,1768872619.48114
1768872619488.9526,1166.3003663003662,,1,2,1768872619.4889526
1768872619496.7651,1172.161172161172,,1,2,1768872619.4967651
1768872619504.5776,1179.4871794871794,,1,2,1768872619.5045776
1768872619512.39,1180.2197802197802,,1,2,1768872619.51239
1768872619520.2026,1174.3589743589744,,1,2,1768872619.5202026
1768872619528.0151,1164.8351648351647,,1,2,1768872619.5280151
1768872619535.8276,1159.7069597069597,,1,2,1768872619.5358276
1768872619543.64,1156.7765567765566,,1,2,1768872619.54364
1768872619551.4526,1152.3809523809523,,1,2,1768872619.5514526
1768872619559.2651,1153.8461538461538,,1,2,1768872619.5592651
1768872619567.0776,1159.7069597069597,,1,2,1768872619.5670776
1768872619574.89,1171.428571428571,,1,2,1768872619.57489
1768872619582.7026,1186.8131868131868,,1,2,1768872619.5827026
1768872619590.5151,1201.4652014652013,,1,2,1768872619.5905151
1768872619598.3276,1214.6520146520145,,1,2,1768872619.5983276
1768872619606.14,1225.6410256410256,,1,2,1768872619.60614
1768872619613.9526,1231.5018315018317,,1,2,1768872619.6139526
1768872619621.7651,1233.6996336996335,,1,2,1768872619.6217651
1768872619629.5776,1230.03663003663,,1,2,1768872619.6295776
1768872619637.39,1224.175824175824,,1,2,1768872619.63739
1768872619645.2026,1215.3846153846152,,1,2,1768872619.6452026
1768872619653.0151,1205.8608058608058,,1,2,1768872619.6530151
1768872619660.8276,1198.5347985347985,,1,2,1768872619.6608276
1768872619668.64,1189.7435897435896,,1,2,1768872619.66864
1768872619676.4526,1189.7435897435896,,1,2,1768872619.6764526
1768872619684.2651,1194.8717948717947,,1,2,1768872619.6842651
1768872619692.0776,1203.6630036630036,,1,2,1768872619.6920776
1768872619699.89,1216.8498168498168,,1,2,1768872619.69989
1768872619707.7026,1232.967032967033,,1,2,1768872619.7077026
1768872619715.5151,1249.8168498168498,,1,2,1768872619.7155151
1768872619723.3276,1268.8644688644688,,1,2,1768872619.7233276
1768872619731.14,1287.179487179487,,1,2,1768872619.73114
1768872619738.9526,1302.5641025641023,,1,2,1768872619.7389526
1768872619746.7651,1315.7509157509155,,1,2,1768872619.7467651
1768872619754.5776,1327.4725274725274,,1,2,1768872619.7545776
1768872619762.39,1336.263736263736,,1,2,1768872619.76239
1768872619770.2026,1341.3919413919414,,1,2,1768872619.7702026
1768872619778.0151,1341.3919413919414,,1,2,1768872619.7780151
1768872619785.8276,1336.9963369963368,,1,2,1768872619.7858276
1768872619793.64,1327.4725274725274,,1,2,1768872619.79364
1768872619801.4526,1315.018315018315,,1,2,1768872619.8014526
1768872619809.2651,1300.3663003663005,,1,2,1768872619.8092651
1768872619817.0776,1284.2490842490845,,1,2,1768872619.8170776
1768872619824.89,1270.3296703296703,,1,2,1768872619.82489
1768872619832.7026,1263.003663003663,,1,2,1768872619.8327026
1768872619840.5151,1259.3406593406592,,1,2,1768872619.8405151
1768872619848.3276,1254.9450549450548,,1,2,1768872619.8483276
1768872619856.14,1248.3516483516482,,1,2,1768872619.85614
1768872619863.9526,1241.0256410256409,,1,2,1768872619.8639526
1768872619871.7651,1232.967032967033,,1,2,1768872619.8717651
1768872619879.5776,1223.4432234432234,,1,2,1768872619.8795776
1768872619887.39,1216.8498168498168,,1,2,1768872619.88739
1768872619895.2026,1210.2564102564102,,1,2,1768872619.8952026
1768872619903.0151,1205.8608058608058,,1,2,1768872619.9030151
1768872619910.8276,1202.9304029304028,,1,2,1768872619.9108276
1768872619918.64,1203.6630036630036,,1,2,1768872619.91864
1768872619926.4526,1204.3956043956043,,1,2,1768872619.9264526
1768872619934.2651,1202.9304029304028,,1,2,1768872619.9342651
1768872619942.0776,1200.7326007326008,,1,2,1768872619.9420776
1768872619949.89,1197.8021978021975,,1,2,1768872619.94989
1768872619957.7026,1194.8717948717947,,1,2,1768872619.9577026
1768872619965.5151,1192.6739926739926,,1,2,1768872619.9655151
1768872619973.3276,1191.941391941392,,1,2,1768872619.9733276
1768872619981.14,1193.4065934065934,,1,2,1768872619.98114
1768872619988.9526,1199.2673992673992,,1,2,1768872619.9889526
1768872619996.7651,1204.3956043956043,,1,2,1768872619.9967651
1768872620004.5776,1207.3260073260074,,1,2,1768872620.0045776
1768872620012.39,1209.5238095238094,,1,2,1768872620.01239
1768872620020.2026,1208.058608058608,,1,2,1768872620.0202026
1768872620028.0151,1203.6630036630036,,1,2,1768872620.0280151
1768872620035.8276,1198.5347985347985,,1,2,1768872620.0358276
1768872620043.64,1194.1391941391942,,1,2,1768872620.04364
1768872620051.4526,1186.080586080586,,0,-1,1768872620.0514526
1768872620059.2651,1179.4871794871794,,0,-1,1768872620.0592651
1768872620067.0776,1176.5567765567764,,0,-1,1768872620.0670776
1768872620074.89,1174.3589743589744,,0,-1,1768872620.07489
1768872620082.7026,1169.230769230769,,0,-1,1768872620.0827026
1768872620090.5151,1167.032967032967,,0,-1,1768872620.0905151
1768872620098.3276,1161.904761904762,,0,-1,1768872620.0983276
1768872620106.14,1155.311355311355,,0,-1,1768872620.10614
1768872620113.9526,1150.18315018315,,0,-1,1768872620.1139526
1768872620121.7651,1142.857142857143,,0,-1,1768872620.1217651
1768872620129.5776,1132.6007326007325,,0,-1,1768872620.1295776
1768872620137.39,1123.8095238095236,,0,-1,1768872620.13739
1768872620145.2026,1118.6813186813183,,0,-1,1768872620.1452026
1768872620153.0151,1121.6117216117216,,0,-1,1768872620.1530151
1768872620160.8276,1128.937728937729,,0,-1,1768872620.1608276
1768872620168.64,1135.5311355311355,,0,-1,1768872620.16864
1768872620176.4526,1141.3919413919414,,0,-1,1768872620.1764526
1768872620184.2651,1145.054945054945,,0,-1,1768872620.1842651
1768872620192.0776,1145.054945054945,,0,-1,1768872620.1920776
1768872620199.89,1147.985347985348,,0,-1,1768872620.19989
1768872620207.7026,1148.7179487179487,,0,-1,1768872620.2077026
1768872620215.5151,1147.985347985348,,0,-1,1768872620.2155151
1768872620223.3276,1150.9157509157508,,0,-1,1768872620.2233276
1768872620231.14,1158.241758241758,,0,-1,1768872620.23114
1768872620238.9526,1167.7655677655678,,0,-1,1768872620.2389526
1768872620246.7651,1181.6849816849815,,0,-1,1768872620.2467651
1768872620254.5776,1196.3369963369962,,0,-1,1768872620.2545776
1768872620262.39,1211.7216117216117,,0,-1,1768872620.26239
1768872620270.2026,1228.5714285714284,,0,-1,1768872620.2702026
1768872620278.0151,1243.2234432234432,,0,-1,1768872620.2780151
1768872620285.8276,1258.6080586080586,,0,-1,1768872620.2858276
1768872620293.64,1268.8644688644688,,0,-1,1768872620.29364
1768872620301.4526,1276.190476190476,,0,-1,1768872620.3014526
1768872620309.2651,1282.7838827838827,,0,-1,1768872620.3092651
1768872620317.0776,1293.7728937728937,,0,-1,1768872620.3170776
1768872620324.89,1299.6336996336995,,0,-1,1768872620.32489
1768872620332.7026,1304.0293040293038,,0,-1,1768872620.3327026
1768872620340.5151,1308.4249084249084,,0,-1,1768872620.3405151
1768872620348.3276,1307.6923076923076,,0,-1,1768872620.3483276
1768872620356.14,1301.098901098901,,0,-1,1768872620.35614
1768872620363.9526,1295.970695970696,,0,-1,1768872620.3639526
1768872620371.7651,1294.5054945054944,,0,-1,1768872620.3717651
1768872620379.5776,1288.6446886446886,,0,-1,1768872620.3795776
1768872620387.39,1287.179487179487,,0,-1,1768872620.38739
1768872620395.2026,1283.5164835164835,,0,-1,1768872620.3952026
1768872620403.0151,1277.6556776556777,,0,-1,1768872620.4030151
1768872620410.8276,1273.992673992674,,0,-1,1768872620.4108276
1768872620418.64,1266.6666666666663,,0,-1,1768872620.41864
1768872620426.4526,1266.6666666666663,,0,-1,1768872620.4264526
1768872620434.2651,1264.4688644688645,,0,-1,1768872620.4342651
1768872620442.0776,1263.003663003663,,0,-1,1768872620.4420776
1768872620449.89,1263.7362637362637,,0,-1,1768872620.44989
1768872620457.7026,1257.875457875458,,0,-1,1768872620.4577026
1768872620465.5151,1255.6776556776556,,0,-1,1768872620.4655151
1768872620473.3276,1243.956043956044,,0,-1,1768872620.4733276
1768872620481.14,1235.8974358974358,,0,-1,1768872620.48114
1768872620488.9526,1225.6410256410256,,0,-1,1768872620.4889526
1768872620496.7651,1225.6410256410256,,0,-1,1768872620.4967651
1768872620504.5776,1221.245421245421,,0,-1,1768872620.5045776
1768872620512.39,1218.3150183150185,,0,-1,1768872620.51239
1768872620520.2026,1209.5238095238094,,0,-1,1768872620.5202026
1768872620528.0151,1202.9304029304028,,0,-1,1768872620.5280151
1768872620535.8276,1197.069597069597,,0,-1,1768872620.5358276
1768872620543.64,1189.7435897435896,,0,-1,1768872620.54364
1768872620551.4526,1188.278388278388,,0,-1,1768872620.5514526
1768872620559.2651,1185.3479853479853,,0,-1,1768872620.5592651
1768872620567.0776,1182.4175824175825,,0,-1,1768872620.5670776
1768872620574.89,1181.6849816849815,,0,-1,1768872620.57489
1768872620582.7026,1177.2893772893772,,0,-1,1768872620.5827026
1768872620590.5151,1178.7545787545787,,0,-1,1768872620.5905151
1768872620598.3276,1174.3589743589744,,0,-1,1768872620.5983276
1768872620606.14,1167.032967032967,,0,-1,1768872620.60614
1768872620613.9526,1154.5787545787546,,0,-1,1768872620.6139526
1768872620621.7651,1129.6703296703297,,0,-1,1768872620.6217651
1768872620629.5776,1107.6923076923076,,0,-1,1768872620.6295776
1768872620637.39,1082.051282051282,,0,-1,1768872620.63739
1768872620645.2026,1057.875457875458,,0,-1,1768872620.6452026
1768872620653.0151,1040.29304029304,,0,-1,1768872620.6530151
1768872620660.8276,1040.29304029304,,0,-1,1768872620.6608276
1768872620668.64,1008.058608058608,,0,-1,1768872620.66864
1768872620676.4526,1008.058608058608,,0,-1,1768872620.6764526
1768872620684.2651,1010.9890109890108,,0,-1,1768872620.6842651
1768872620692.0776,1007.3260073260072,,0,-1,1768872620.6920776
1768872620699.89,936.2637362637362,,0,-1,1768872620.69989
1768872620707.7026,800.7326007326006,,0,-1,1768872620.7077026
1768872620715.5151,643.9560439560439,,0,-1,1768872620.7155151
1768872620723.3276,493.7728937728937,,0,-1,1768872620.7233276
1768872620731.14,367.76556776556777,,0,-1,1768872620.73114
1768872620738.9526,274.7252747252747,,0,-1,1768872620.7389526
1768872620746.7651,220.5128205128205,,0,-1,1768872620.7467651
1768872620754.5776,206.59340659340657,,0,-1,1768872620.7545776
1768872620762.39,224.17582417582412,,0,-1,1768872620.76239
1768872620770.2026,264.46886446886447,,0,-1,1768872620.7702026
1768872620778.0151,317.9487179487179,,0,-1,1768872620.7780151
1768872620785.8276,383.1501831501831,,0,-1,1768872620.7858276
1768872620793.64,457.1428571428571,,0,-1,1768872620.79364
1768872620801.4526,534.065934065934,,0,-1,1768872620.8014526
1768872620809.2651,612.4542124542124,,0,-1,1768872620.8092651
1768872620817.0776,695.2380952380952,,0,-1,1768872620.8170776
1768872620824.89,778.0219780219779,,0,-1,1768872620.82489
1768872620832.7026,856.4102564102564,,0,-1,1768872620.8327026
1768872620840.5151,928.2051282051282,,0,-1,1768872620.8405151
1768872620848.3276,991.941391941392,,0,-1,1768872620.8483276
1768872620856.14,1050.5494505494505,,0,-1,1768872620.85614
1768872620863.9526,1100.3663003663005,,0,-1,1768872620.8639526
1768872620871.7651,1143.5897435897434,,0,-1,1768872620.8717651
1768872620879.5776,1183.8827838827838,,0,-1,1768872620.8795776
1768872620887.39,1220.5128205128203,,0,-1,1768872620.88739
1768872620895.2026,1252.014652014652,,0,-1,1768872620.8952026
1768872620903.0151,1275.4578754578754,,0,-1,1768872620.9030151
1768872620910.8276,1295.2380952380952,,0,-1,1768872620.9108276
1768872620918.64,1310.6227106227104,,0,-1,1768872620.91864
1768872620926.4526,1322.3443223443223,,0,-1,1768872620.9264526
1768872620934.2651,1331.135531135531,,0,-1,1768872620.9342651
1768872620942.0776,1335.5311355311355,,0,-1,1768872620.9420776
1768872620949.89,1337.7289377289376,,0,-1,1768872620.94989
1768872620957.7026,1335.5311355311355,,0,-1,1768872620.9577026
1768872620965.5151,1329.6703296703297,,0,-1,1768872620.9655151
1768872620973.3276,1322.3443223443223,,0,-1,1768872620.9733276
1768872620981.14,1315.018315018315,,0,-1,1768872620.98114
1768872620988.9526,1306.9597069597069,,0,-1,1768872620.9889526
1768872620996.7651,1294.5054945054944,,0,-1,1768872620.9967651
1768872621004.5776,1286.4468864468863,,0,-1,1768872621.0045776
1768872621012.39,1281.3186813186812,,0,-1,1768872621.01239
1768872621020.2026,1279.120879120879,,0,-1,1768872621.0202026
1768872621028.0151,1277.6556776556777,,0,-1,1768872621.0280151
1768872621035.8276,1275.4578754578754,,0,-1,1768872621.0358276
1768872621043.64,1272.5274725274724,,0,-1,1768872621.04364
1768872621051.4526,1271.7948717948716,,0,-1,1768872621.0514526
1768872621059.2651,1271.7948717948716,,0,-1,1768872621.0592651
1768872621067.0776,1271.062271062271,,0,-1,1768872621.0670776
1768872621074.89,1268.8644688644688,,0,-1,1768872621.07489
1768872621082.7026,1265.9340659340658,,0,-1,1768872621.0827026
1768872621090.5151,1264.4688644688645,,0,-1,1768872621.0905151
1768872621098.3276,1267.3992673992673,,0,-1,1768872621.0983276
1768872621106.14,1271.7948717948716,,0,-1,1768872621.10614
1768872621113.9526,1275.4578754578754,,0,-1,1768872621.1139526
1768872621121.7651,1278.3882783882782,,0,-1,1768872621.1217651
1768872621129.5776,1279.8534798534797,,0,-1,1768872621.1295776
1768872621137.39,1279.120879120879,,0,-1,1768872621.13739
1768872621145.2026,1276.190476190476,,0,-1,1768872621.1452026
1768872621153.0151,1272.5274725274724,,0,-1,1768872621.1530151
1768872621160.8276,1271.062271062271,,0,-1,1768872621.1608276
1768872621168.64,1268.131868131868,,0,-1,1768872621.16864
1768872621176.4526,1271.062271062271,,0,-1,1768872621.1764526
1768872621184.2651,1274.7252747252746,,0,-1,1768872621.1842651
1768872621192.0776,1276.923076923077,,0,-1,1768872621.1920776
1768872621199.89,1279.120879120879,,0,-1,1768872621.19989
1768872621207.7026,1276.190476190476,,0,-1,1768872621.2077026
1768872621215.5151,1271.062271062271,,0,-1,1768872621.2155151
1768872621223.3276,1265.2014652014652,,0,-1,1768872621.2233276
1768872621231.14,1261.5384615384614,,0,-1,1768872621.23114
1768872621238.9526,1260.07326007326,,0,-1,1768872621.2389526
1768872621246.7651,1260.805860805861,,0,-1,1768872621.2467651
1768872621254.5776,1260.805860805861,,0,-1,1768872621.2545776
1768872621262.39,1261.5384615384614,,0,-1,1768872621.26239
1768872621270.2026,1260.805860805861,,0,-1,1768872621.2702026
1768872621278.0151,1263.003663003663,,0,-1,1768872621.2780151
1768872621285.8276,1265.9340659340658,,0,-1,1768872621.2858276
1768872621293.64,1269.5970695970695,,0,-1,1768872621.29364
1768872621301.4526,1276.923076923077,,0,-1,1768872621.3014526
1768872621309.2651,1287.179487179487,,0,-1,1768872621.3092651
1768872621317.0776,1293.040293040293,,0,-1,1768872621.3170776
1768872621324.89,1295.2380952380952,,0,-1,1768872621.32489
1768872621332.7026,1291.5750915750914,,0,-1,1768872621.3327026
1768872621340.5151,1287.9120879120878,,0,-1,1768872621.3405151
1768872621348.3276,1287.179487179487,,0,-1,1768872621.3483276
1768872621356.14,1288.6446886446886,,0,-1,1768872621.35614
1768872621363.9526,1289.3772893772891,,0,-1,1768872621.3639526
1768872621371.7651,1295.2380952380952,,0,-1,1768872621.3717651
1768872621379.5776,1305.4945054945051,,0,-1,1768872621.3795776
1768872621387.39,1319.4139194139193,,0,-1,1768872621.38739
1768872621395.2026,1335.5311355311355,,0,-1,1768872621.3952026
1768872621403.0151,1353.8461538461538,,0,-1,1768872621.4030151
1768872621410.8276,1378.021978021978,,0,-1,1768872621.4108276
1768872621418.64,1405.128205128205,,0,-1,1768872621.41864
1768872621426.4526,1432.2344322344322,,0,-1,1768872621.4264526
1768872621434.2651,1455.6776556776556,,0,-1,1768872621.4342651
1768872621442.0776,1472.5274725274724,,0,-1,1768872621.4420776
1768872621449.89,1485.7142857142856,,0,-1,1768872621.44989
1768872621457.7026,1490.10989010989,,0,-1,1768872621.4577026
1768872621465.5151,1484.2490842490845,,0,-1,1768872621.4655151
1768872621473.3276,1476.923076923077,,0,-1,1768872621.4733276
1768872621481.14,1471.7948717948716,,0,-1,1768872621.48114
1768872621488.9526,1468.131868131868,,0,-1,1768872621.4889526
1768872621496.7651,1468.8644688644688,,0,-1,1768872621.4967651
1768872621504.5776,1470.3296703296703,,0,-1,1768872621.5045776
1768872621512.39,1471.7948717948716,,1,3,1768872621.51239
1768872621520.2026,1473.260073260073,,1,3,1768872621.5202026
1768872621528.0151,1473.992673992674,,1,3,1768872621.5280151
1768872621535.8276,1473.992673992674,,1,3,1768872621.5358276
1768872621543.64,1476.190476190476,,1,3,1768872621.54364
1768872621551.4526,1481.3186813186812,,1,3,1768872621.5514526
1768872621559.2651,1486.4468864468863,,1,3,1768872621.5592651
1768872621567.0776,1493.040293040293,,1,3,1768872621.5670776
1768872621574.89,1500.3663003663005,,1,3,1768872621.57489
1768872621582.7026,1503.2967032967033,,1,3,1768872621.5827026
1768872621590.5151,1503.2967032967033,,1,3,1768872621.5905151
1768872621598.3276,1509.89010989011,,1,3,1768872621.5983276
1768872621606.14,1517.9487179487178,,1,3,1768872621.60614
1768872621613.9526,1527.4725274725274,,1,3,1768872621.6139526
1768872621621.7651,1539.194139194139,,1,3,1768872621.6217651
1768872621629.5776,1545.054945054945,,1,3,1768872621.6295776
1768872621637.39,1553.113553113553,,1,3,1768872621.63739
1768872621645.2026,1556.7765567765566,,1,3,1768872621.6452026
1768872621653.0151,1557.5091575091574,,1,3,1768872621.6530151
1768872621660.8276,1559.7069597069597,,1,3,1768872621.6608276
1768872621668.64,1558.974358974359,,1,3,1768872621.66864
1768872621676.4526,1557.5091575091574,,1,3,1768872621.6764526
1768872621684.2651,1556.043956043956,,1,3,1768872621.6842651
1768872621692.0776,1544.3223443223442,,1,3,1768872621.6920776
1768872621699.89,1533.3333333333333,,1,3,1768872621.69989
1768872621707.7026,1524.5421245421244,,1,3,1768872621.7077026
1768872621715.5151,1520.8791208791208,,1,3,1768872621.7155151
1768872621723.3276,1522.3443223443223,,1,3,1768872621.7233276
1768872621731.14,1528.937728937729,,1,3,1768872621.73114
1768872621738.9526,1545.054945054945,,1,3,1768872621.7389526
1768872621746.7651,1561.9047619047617,,1,3,1768872621.7467651
1768872621754.5776,1582.4175824175825,,1,3,1768872621.7545776
1768872621762.39,1592.6739926739926,,1,3,1768872621.76239
1768872621770.2026,1593.4065934065934,,1,3,1768872621.7702026
1768872621778.0151,1588.278388278388,,1,3,1768872621.7780151
1768872621785.8276,1579.4871794871794,,1,3,1768872621.7858276
1768872621793.64,1569.9633699633698,,1,3,1768872621.79364
1768872621801.4526,1564.102564102564,,1,3,1768872621.8014526
1768872621809.2651,1560.4395604395604,,1,3,1768872621.8092651
1768872621817.0776,1569.9633699633698,,1,3,1768872621.8170776
1768872621824.89,1599.2673992673992,,1,3,1768872621.82489
1768872621832.7026,1654.9450549450548,,1,3,1768872621.8327026
1768872621840.5151,1723.0769230769229,,1,3,1768872621.8405151
1768872621848.3276,1783.8827838827838,,1,3,1768872621.8483276
1768872621856.14,1838.8278388278384,,1,3,1768872621.85614
1768872621863.9526,1870.3296703296703,,1,3,1768872621.8639526
1768872621871.7651,1885.7142857142856,,1,3,1768872621.8717651
1768872621879.5776,1882.051282051282,,1,3,1768872621.8795776
1768872621887.39,1863.736263736264,,1,3,1768872621.88739
1768872621895.2026,1835.897435897436,,1,3,1768872621.8952026
1768872621903.0151,1798.5347985347985,,1,3,1768872621.9030151
1768872621910.8276,1753.113553113553,,1,3,1768872621.9108276
1768872621918.64,1698.9010989010987,,1,3,1768872621.91864
1768872621926.4526,1637.362637362637,,1,3,1768872621.9264526
1768872621934.2651,1585.3479853479853,,1,3,1768872621.9342651
1768872621942.0776,1534.7985347985348,,1,3,1768872621.9420776
1768872621949.89,1493.040293040293,,1,3,1768872621.94989
1768872621957.7026,1460.805860805861,,1,3,1768872621.9577026
1768872621965.5151,1430.03663003663,,1,3,1768872621.9655151
1768872621973.3276,1410.2564102564102,,1,3,1768872621.9733276
1768872621981.14,1390.4761904761904,,1,3,1768872621.98114
1768872621988.9526,1378.021978021978,,1,3,1768872621.9889526
1768872621996.7651,1370.6959706959706,,1,3,1768872621.9967651
1768872622004.5776,1366.3003663003662,,1,3,1768872622.0045776
1768872622012.39,1361.904761904762,,1,3,1768872622.01239
1768872622020.2026,1365.5677655677655,,1,3,1768872622.0202026
1768872622028.0151,1369.230769230769,,1,3,1768872622.0280151
1768872622035.8276,1369.9633699633698,,1,3,1768872622.0358276
1768872622043.64,1378.021978021978,,1,3,1768872622.04364
1768872622051.4526,1391.2087912087911,,1,3,1768872622.0514526
1768872622059.2651,1402.9304029304028,,1,3,1768872622.0592651
1768872622067.0776,1416.8498168498168,,1,3,1768872622.0670776
1768872622074.89,1424.9084249084249,,1,3,1768872622.07489
1768872622082.7026,1425.6410256410256,,1,3,1768872622.0827026
1768872622090.5151,1425.6410256410256,,1,3,1768872622.0905151
1768872622098.3276,1422.7106227106226,,1,3,1768872622.0983276
1768872622106.14,1416.8498168498168,,1,3,1768872622.10614
1768872622113.9526,1410.989010989011,,1,3,1768872622.1139526
1768872622121.7651,1407.3260073260071,,1,3,1768872622.1217651
1768872622129.5776,1399.2673992673992,,1,3,1768872622.1295776
1768872622137.39,1388.278388278388,,1,3,1768872622.13739
1768872622145.2026,1379.4871794871794,,1,3,1768872622.1452026
1768872622153.0151,1368.4981684981683,,1,3,1768872622.1530151
1768872622160.8276,1357.5091575091574,,1,3,1768872622.1608276
1768872622168.64,1350.18315018315,,1,3,1768872622.16864
1768872622176.4526,1340.6593406593406,,1,3,1768872622.1764526
1768872622184.2651,1335.5311355311355,,1,3,1768872622.1842651
1768872622192.0776,1331.8681318681315,,1,3,1768872622.1920776
1768872622199.89,1326.007326007326,,1,3,1768872622.19989
1768872622207.7026,1319.4139194139193,,1,3,1768872622.2077026
1768872622215.5151,1312.8205128205127,,1,3,1768872622.2155151
1768872622223.3276,1310.6227106227104,,1,3,1768872622.2233276
1768872622231.14,1308.4249084249084,,1,3,1768872622.23114
1768872622238.9526,1306.227106227106,,1,3,1768872622.2389526
1768872622246.7651,1304.0293040293038,,1,3,1768872622.2467651
1768872622254.5776,1298.9010989010987,,1,3,1768872622.2545776
1768872622262.39,1293.040293040293,,1,3,1768872622.26239
1768872622270.2026,1287.179487179487,,1,3,1768872622.2702026
1768872622278.0151,1286.4468864468863,,1,3,1768872622.2780151
1768872622285.8276,1291.5750915750914,,1,3,1768872622.2858276
1768872622293.64,1293.7728937728937,,1,3,1768872622.29364
1768872622301.4526,1298.168498168498,,1,3,1768872622.3014526
1768872622309.2651,1307.6923076923076,,1,3,1768872622.3092651
1768872622317.0776,1315.7509157509155,,1,3,1768872622.3170776
1768872622324.89,1318.6813186813183,,1,3,1768872622.32489
1768872622332.7026,1325.2747252747251,,1,3,1768872622.3327026
1768872622340.5151,1328.937728937729,,1,3,1768872622.3405151
1768872622348.3276,1326.007326007326,,1,3,1768872622.3483276
1768872622356.14,1321.6117216117216,,1,3,1768872622.35614
1768872622363.9526,1317.216117216117,,1,3,1768872622.3639526
1768872622371.7651,1315.018315018315,,1,3,1768872622.3717651
1768872622379.5776,1309.89010989011,,1,3,1768872622.3795776
1768872622387.39,1306.9597069597069,,1,3,1768872622.38739
1768872622395.2026,1304.0293040293038,,1,3,1768872622.3952026
1768872622403.0151,1303.2967032967033,,1,3,1768872622.4030151
1768872622410.8276,1301.8315018315018,,1,3,1768872622.4108276
1768872622418.64,1298.9010989010987,,1,3,1768872622.41864
1768872622426.4526,1294.5054945054944,,1,3,1768872622.4264526
1768872622434.2651,1289.3772893772891,,1,3,1768872622.4342651
1768872622442.0776,1283.5164835164835,,1,3,1768872622.4420776
1768872622449.89,1279.120879120879,,1,3,1768872622.44989
1768872622457.7026,1277.6556776556777,,1,3,1768872622.4577026
1768872622465.5151,1276.923076923077,,1,3,1768872622.4655151
1768872622473.3276,1279.8534798534797,,1,3,1768872622.4733276
1768872622481.14,1278.3882783882782,,1,3,1768872622.48114
1768872622488.9526,1273.992673992674,,1,3,1768872622.4889526
1768872622496.7651,1268.131868131868,,1,3,1768872622.4967651
1768872622504.5776,1260.805860805861,,1,3,1768872622.5045776
1768872622512.39,1252.7472527472526,,1,3,1768872622.51239
1768872622520.2026,1246.8864468864467,,1,3,1768872622.5202026
1768872622528.0151,1242.4908424908424,,1,3,1768872622.5280151
1768872622535.8276,1240.29304029304,,1,3,1768872622.5358276
1768872622543.64,1241.0256410256409,,1,3,1768872622.54364
1768872622551.4526,1248.3516483516482,,1,3,1768872622.5514526
1768872622559.2651,1262.2710622710622,,1,3,1768872622.5592651
1768872622567.0776,1279.8534798534797,,1,3,1768872622.5670776
1768872622574.89,1302.5641025641023,,1,3,1768872622.57489
1768872622582.7026,1324.5421245421244,,1,3,1768872622.5827026
1768872622590.5151,1344.3223443223442,,1,3,1768872622.5905151
1768872622598.3276,1362.6373626373625,,1,3,1768872622.5983276
1768872622606.14,1380.2197802197802,,1,3,1768872622.60614
1768872622613.9526,1397.069597069597,,1,3,1768872622.6139526
1768872622621.7651,1410.989010989011,,1,3,1768872622.6217651
1768872622629.5776,1423.4432234432234,,1,3,1768872622.6295776
1768872622637.39,1430.7692307692307,,1,3,1768872622.63739
1768872622645.2026,1434.4322344322345,,1,3,1768872622.6452026
1768872622653.0151,1434.4322344322345,,1,3,1768872622.6530151
1768872622660.8276,1432.2344322344322,,1,3,1768872622.6608276
1768872622668.64,1430.7692307692307,,1,3,1768872622.66864
1768872622676.4526,1427.106227106227,,1,3,1768872622.6764526
1768872622684.2651,1419.7802197802198,,1,3,1768872622.6842651
1768872622692.0776,1410.2564102564102,,0,-1,1768872622.6920776
1768872622699.89,1397.8021978021975,,0,-1,1768872622.69989
1768872622707.7026,1383.8827838827838,,0,-1,1768872622.7077026
1768872622715.5151,1369.230769230769,,0,-1,1768872622.7155151
1768872622723.3276,1358.241758241758,,0,-1,1768872622.7233276
1768872622731.14,1349.4505494505493,,0,-1,1768872622.73114
1768872622738.9526,1345.054945054945,,0,-1,1768872622.7389526
1768872622746.7651,1340.6593406593406,,0,-1,1768872622.7467651
1768872622754.5776,1336.263736263736,,0,-1,1768872622.7545776
1768872622762.39,1331.8681318681315,,0,-1,1768872622.76239
1768872622770.2026,1326.739926739927,,0,-1,1768872622.7702026
1768872622778.0151,1323.076923076923,,0,-1,1768872622.7780151
1768872622785.8276,1319.4139194139193,,0,-1,1768872622.7858276
1768872622793.64,1316.4835164835165,,0,-1,1768872622.79364
1768872622801.4526,1318.6813186813183,,0,-1,1768872622.8014526
1768872622809.2651,1323.8095238095236,,0,-1,1768872622.8092651
1768872622817.0776,1328.937728937729,,0,-1,1768872622.8170776
1768872622824.89,1333.3333333333333,,0,-1,1768872622.82489
1768872622832.7026,1336.9963369963368,,0,-1,1768872622.8327026
1768872622840.5151,1339.194139194139,,0,-1,1768872622.8405151
1768872622848.3276,1341.3919413919414,,0,-1,1768872622.8483276
1768872622856.14,1340.6593406593406,,0,-1,1768872622.85614
1768872622863.9526,1334.7985347985348,,0,-1,1768872622.8639526
1768872622871.7651,1325.2747252747251,,0,-1,1768872622.8717651
1768872622879.5776,1312.8205128205127,,0,-1,1768872622.8795776
1768872622887.39,1306.9597069597069,,0,-1,1768872622.88739
1768872622895.2026,1306.227106227106,,0,-1,1768872622.8952026
1768872622903.0151,1308.4249084249084,,0,-1,1768872622.9030151
1768872622910.8276,1309.89010989011,,0,-1,1768872622.9108276
1768872622918.64,1307.6923076923076,,0,-1,1768872622.91864
1768872622926.4526,1304.7619047619046,,0,-1,1768872622.9264526
1768872622934.2651,1304.7619047619046,,0,-1,1768872622.9342651
1768872622942.0776,1304.0293040293038,,0,-1,1768872622.9420776
1768872622949.89,1304.0293040293038,,0,-1,1768872622.94989
1768872622957.7026,1304.0293040293038,,0,-1,1768872622.9577026
1768872622965.5151,1304.0293040293038,,0,-1,1768872622.9655151
1768872622973.3276,1304.0293040293038,,0,-1,1768872622.9733276
1768872622981.14,1301.098901098901,,0,-1,1768872622.98114
1768872622988.9526,1301.098901098901,,0,-1,1768872622.9889526
1768872622996.7651,1298.168498168498,,0,-1,1768872622.9967651
1768872623004.5776,1289.3772893772891,,0,-1,1768872623.0045776
1768872623012.39,1276.190476190476,,0,-1,1768872623.01239
1768872623020.2026,1262.2710622710622,,0,-1,1768872623.0202026
1768872623028.0151,1256.4102564102564,,0,-1,1768872623.0280151
1768872623035.8276,1254.9450549450548,,0,-1,1768872623.0358276
1768872623043.64,1258.6080586080586,,0,-1,1768872623.04364
1768872623051.4526,1265.9340659340658,,0,-1,1768872623.0514526
1768872623059.2651,1274.7252747252746,,0,-1,1768872623.0592651
1768872623067.0776,1285.7142857142856,,0,-1,1768872623.0670776
1768872623074.89,1292.3076923076922,,0,-1,1768872623.07489
1768872623082.7026,1301.098901098901,,0,-1,1768872623.0827026
1768872623090.5151,1300.3663003663005,,0,-1,1768872623.0905151
1768872623098.3276,1300.3663003663005,,0,-1,1768872623.0983276
1768872623106.14,1300.3663003663005,,0,-1,1768872623.10614
1768872623113.9526,1297.4358974358977,,0,-1,1768872623.1139526
1768872623121.7651,1297.4358974358977,,0,-1,1768872623.1217651
1768872623129.5776,1296.7032967032967,,0,-1,1768872623.1295776
1768872623137.39,1297.4358974358977,,0,-1,1768872623.13739
1768872623145.2026,1299.6336996336995,,0,-1,1768872623.1452026
1768872623153.0151,1305.4945054945051,,0,-1,1768872623.1530151
1768872623160.8276,1319.4139194139193,,0,-1,1768872623.1608276
1768872623168.64,1338.4615384615383,,0,-1,1768872623.16864
1768872623176.4526,1356.7765567765566,,0,-1,1768872623.1764526
1768872623184.2651,1377.2893772893772,,0,-1,1768872623.1842651
1768872623192.0776,1390.4761904761904,,0,-1,1768872623.1920776
1768872623199.89,1402.9304029304028,,0,-1,1768872623.19989
1768872623207.7026,1413.1868131868132,,0,-1,1768872623.2077026
1768872623215.5151,1429.3040293040292,,0,-1,1768872623.2155151
1768872623223.3276,1441.7582417582416,,0,-1,1768872623.2233276
1768872623231.14,1453.479853479853,,0,-1,1768872623.23114
1768872623238.9526,1459.3406593406592,,0,-1,1768872623.2389526
1768872623246.7651,1465.201465201465,,0,-1,1768872623.2467651
1768872623254.5776,1471.7948717948716,,0,-1,1768872623.2545776
1768872623262.39,1469.5970695970695,,0,-1,1768872623.26239
1768872623270.2026,1464.4688644688645,,0,-1,1768872623.2702026
1768872623278.0151,1460.805860805861,,0,-1,1768872623.2780151
1768872623285.8276,1453.479853479853,,0,-1,1768872623.2858276
1768872623293.64,1445.4212454212454,,0,-1,1768872623.29364
1768872623301.4526,1432.9670329670328,,0,-1,1768872623.3014526
1768872623309.2651,1424.175824175824,,0,-1,1768872623.3092651
1768872623317.0776,1409.5238095238094,,0,-1,1768872623.3170776
1768872623324.89,1397.8021978021975,,0,-1,1768872623.32489
1768872623332.7026,1386.8131868131868,,0,-1,1768872623.3327026
1768872623340.5151,1375.091575091575,,0,-1,1768872623.3405151
1768872623348.3276,1365.5677655677655,,0,-1,1768872623.3483276
1768872623356.14,1352.3809523809523,,0,-1,1768872623.35614
1768872623363.9526,1347.2527472527472,,0,-1,1768872623.3639526
1768872623371.7651,1343.5897435897434,,0,-1,1768872623.3717651
1768872623379.5776,1349.4505494505493,,0,-1,1768872623.3795776
1768872623387.39,1350.9157509157508,,0,-1,1768872623.38739
1768872623395.2026,1350.9157509157508,,0,-1,1768872623.3952026
1768872623403.0151,1352.3809523809523,,0,-1,1768872623.4030151
1768872623410.8276,1350.18315018315,,0,-1,1768872623.4108276
1768872623418.64,1347.2527472527472,,0,-1,1768872623.41864
1768872623426.4526,1343.5897435897434,,0,-1,1768872623.4264526
1768872623434.2651,1342.857142857143,,0,-1,1768872623.4342651
1768872623442.0776,1339.194139194139,,0,-1,1768872623.4420776
1768872623449.89,1339.92673992674,,0,-1,1768872623.44989
1768872623457.7026,1337.7289377289376,,0,-1,1768872623.4577026
1768872623465.5151,1326.007326007326,,0,-1,1768872623.4655151
1768872623473.3276,1317.216117216117,,0,-1,1768872623.4733276
1768872623481.14,1301.098901098901,,0,-1,1768872623.48114
1768872623488.9526,1292.3076923076922,,0,-1,1768872623.4889526
1768872623496.7651,1283.5164835164835,,0,-1,1768872623.4967651
1768872623504.5776,1275.4578754578754,,0,-1,1768872623.5045776
1768872623512.39,1276.190476190476,,0,-1,1768872623.51239
1768872623520.2026,1276.923076923077,,0,-1,1768872623.5202026
1768872623528.0151,1276.923076923077,,0,-1,1768872623.5280151
1768872623535.8276,1284.2490842490845,,0,-1,1768872623.5358276
1768872623543.64,1287.9120879120878,,0,-1,1768872623.54364
1768872623551.4526,1288.6446886446886,,0,-1,1768872623.5514526
1768872623559.2651,1290.8424908424909,,0,-1,1768872623.5592651
1768872623567.0776,1294.5054945054944,,0,-1,1768872623.5670776
1768872623574.89,1295.970695970696,,0,-1,1768872623.57489
1768872623582.7026,1297.4358974358977,,0,-1,1768872623.5827026
1768872623590.5151,1296.7032967032967,,0,-1,1768872623.5905151
1768872623598.3276,1292.3076923076922,,0,-1,1768872623.5983276
1768872623606.14,1287.9120879120878,,0,-1,1768872623.60614
1768872623613.9526,1283.5164835164835,,0,-1,1768872623.6139526
1768872623621.7651,1273.992673992674,,0,-1,1768872623.6217651
1768872623629.5776,1258.6080586080586,,0,-1,1768872623.6295776
1768872623637.39,1243.2234432234432,,0,-1,1768872623.63739
1768872623645.2026,1230.03663003663,,0,-1,1768872623.6452026
1768872623653.0151,1210.2564102564102,,0,-1,1768872623.6530151
1768872623660.8276,1185.3479853479853,,0,-1,1768872623.6608276
1768872623668.64,1161.904761904762,,0,-1,1768872623.66864
1768872623676.4526,1139.92673992674,,0,-1,1768872623.6764526
1768872623684.2651,1122.3443223443223,,0,-1,1768872623.6842651
1768872623692.0776,1105.4945054945051,,0,-1,1768872623.6920776
1768872623699.89,1087.9120879120878,,0,-1,1768872623.69989
1768872623707.7026,1066.6666666666663,,0,-1,1768872623.7077026
1768872623715.5151,1047.6190476190477,,0,-1,1768872623.7155151
1768872623723.3276,1034.4322344322345,,0,-1,1768872623.7233276
1768872623731.14,1030.7692307692307,,0,-1,1768872623.73114
1768872623738.9526,1035.164835164835,,0,-1,1768872623.7389526
1768872623746.7651,1045.4212454212454,,0,-1,1768872623.7467651
1768872623754.5776,1064.4688644688645,,0,-1,1768872623.7545776
1768872623762.39,1090.10989010989,,0,-1,1768872623.76239
1768872623770.2026,1116.4835164835165,,0,-1,1768872623.7702026
1768872623778.0151,1143.5897435897434,,0,-1,1768872623.7780151
1768872623785.8276,1172.8937728937728,,0,-1,1768872623.7858276
1768872623793.64,1200.0,,0,-1,1768872623.79364
1768872623801.4526,1222.7106227106226,,0,-1,1768872623.8014526
1768872623809.2651,1241.0256410256409,,0,-1,1768872623.8092651
1768872623817.0776,1255.6776556776556,,0,-1,1768872623.8170776
1768872623824.89,1270.3296703296703,,0,-1,1768872623.82489
1768872623832.7026,1282.7838827838827,,0,-1,1768872623.8327026
1768872623840.5151,1295.2380952380952,,0,-1,1768872623.8405151
1768872623848.3276,1305.4945054945051,,0,-1,1768872623.8483276
1768872623856.14,1313.5531135531137,,0,-1,1768872623.85614
1768872623863.9526,1320.14652014652,,0,-1,1768872623.8639526
1768872623871.7651,1323.076923076923,,0,-1,1768872623.8717651
1768872623879.5776,1326.739926739927,,0,-1,1768872623.8795776
1768872623887.39,1331.135531135531,,0,-1,1768872623.88739
1768872623895.2026,1339.194139194139,,0,-1,1768872623.8952026
1768872623903.0151,1346.5201465201465,,0,-1,1768872623.9030151
1768872623910.8276,1350.9157509157508,,0,-1,1768872623.9108276
1768872623918.64,1352.3809523809523,,0,-1,1768872623.91864
1768872623926.4526,1347.985347985348,,0,-1,1768872623.9264526
1768872623934.2651,1341.3919413919414,,0,-1,1768872623.9342651
1768872623942.0776,1338.4615384615383,,0,-1,1768872623.9420776
1768872623949.89,1336.9963369963368,,0,-1,1768872623.94989
1768872623957.7026,1339.194139194139,,0,-1,1768872623.9577026
1768872623965.5151,1341.3919413919414,,0,-1,1768872623.9655151
1768872623973.3276,1339.194139194139,,0,-1,1768872623.9733276
1768872623981.14,1334.7985347985348,,0,-1,1768872623.98114
1768872623988.9526,1333.3333333333333,,0,-1,1768872623.9889526
1768872623996.7651,1333.3333333333333,,0,-1,1768872623.9967651
1768872624004.5776,1332.6007326007325,,0,-1,1768872624.0045776
1768872624012.39,1332.6007326007325,,0,-1,1768872624.01239
1768872624020.2026,1330.4029304029302,,0,-1,1768872624.0202026
1768872624028.0151,1328.937728937729,,0,-1,1768872624.0280151
1768872624035.8276,1327.4725274725274,,0,-1,1768872624.0358276
1768872624043.64,1326.007326007326,,0,-1,1768872624.04364
1768872624051.4526,1320.8791208791208,,0,-1,1768872624.0514526
1768872624059.2651,1316.4835164835165,,0,-1,1768872624.0592651
1768872624067.0776,1312.087912087912,,0,-1,1768872624.0670776
1768872624074.89,1308.4249084249084,,0,-1,1768872624.07489
1768872624082.7026,1307.6923076923076,,0,-1,1768872624.0827026
1768872624090.5151,1304.7619047619046,,0,-1,1768872624.0905151
1768872624098.3276,1301.098901098901,,0,-1,1768872624.0983276
1768872624106.14,1298.168498168498,,0,-1,1768872624.10614
1768872624113.9526,1297.4358974358977,,0,-1,1768872624.1139526
1768872624121.7651,1293.7728937728937,,0,-1,1768872624.1217651
1768872624129.5776,1287.9120879120878,,0,-1,1768872624.1295776
1768872624137.39,1276.923076923077,,0,-1,1768872624.13739
1768872624145.2026,1265.9340659340658,,0,-1,1768872624.1452026
1768872624153.0151,1259.3406593406592,,0,-1,1768872624.1530151
1768872624160.8276,1257.142857142857,,0,-1,1768872624.1608276
1768872624168.64,1255.6776556776556,,0,-1,1768872624.16864
1768872624176.4526,1257.142857142857,,0,-1,1768872624.1764526
1768872624184.2651,1257.142857142857,,0,-1,1768872624.1842651
1768872624192.0776,1255.6776556776556,,0,-1,1768872624.1920776
1768872624199.89,1252.7472527472526,,0,-1,1768872624.19989
1768872624207.7026,1248.3516483516482,,0,-1,1768872624.2077026
1768872624215.5151,1246.153846153846,,0,-1,1768872624.2155151
1768872624223.3276,1243.956043956044,,0,-1,1768872624.2233276
1768872624231.14,1242.4908424908424,,0,-1,1768872624.23114
1768872624238.9526,1241.7582417582416,,0,-1,1768872624.2389526
1768872624246.7651,1239.5604395604396,,0,-1,1768872624.2467651
1768872624254.5776,1240.29304029304,,0,-1,1768872624.2545776
1768872624262.39,1242.4908424908424,,0,-1,1768872624.26239
1768872624270.2026,1247.6190476190477,,0,-1,1768872624.2702026
1768872624278.0151,1252.7472527472526,,0,-1,1768872624.2780151
1768872624285.8276,1254.9450549450548,,0,-1,1768872624.2858276
1768872624293.64,1255.6776556776556,,0,-1,1768872624.29364
1768872624301.4526,1260.805860805861,,0,-1,1768872624.3014526
1768872624309.2651,1269.5970695970695,,0,-1,1768872624.3092651
1768872624317.0776,1281.3186813186812,,0,-1,1768872624.3170776
1768872624324.89,1295.970695970696,,0,-1,1768872624.32489
1768872624332.7026,1315.018315018315,,1,4,1768872624.3327026
1768872624340.5151,1334.065934065934,,1,4,1768872624.3405151
1768872624348.3276,1350.9157509157508,,1,4,1768872624.3483276
1768872624356.14,1363.3699633699632,,1,4,1768872624.35614
1768872624363.9526,1372.8937728937728,,1,4,1768872624.3639526
1768872624371.7651,1379.4871794871794,,1,4,1768872624.3717651
1768872624379.5776,1384.6153846153843,,1,4,1768872624.3795776
1768872624387.39,1390.4761904761904,,1,4,1768872624.38739
1768872624395.2026,1396.3369963369962,,1,4,1768872624.3952026
1768872624403.0151,1398.5347985347985,,1,4,1768872624.4030151
1768872624410.8276,1400.0,,1,4,1768872624.4108276
1768872624418.64,1403.6630036630036,,1,4,1768872624.41864
1768872624426.4526,1410.989010989011,,1,4,1768872624.4264526
1768872624434.2651,1415.3846153846152,,1,4,1768872624.4342651
1768872624442.0776,1419.7802197802198,,1,4,1768872624.4420776
1768872624449.89,1418.3150183150185,,1,4,1768872624.44989
1768872624457.7026,1419.7802197802198,,1,4,1768872624.4577026
1768872624465.5151,1419.7802197802198,,1,4,1768872624.4655151
1768872624473.3276,1416.8498168498168,,1,4,1768872624.4733276
1768872624481.14,1407.3260073260071,,1,4,1768872624.48114
1768872624488.9526,1398.5347985347985,,1,4,1768872624.4889526
1768872624496.7651,1391.2087912087911,,1,4,1768872624.4967651
1768872624504.5776,1379.4871794871794,,1,4,1768872624.5045776
1768872624512.39,1363.3699633699632,,1,4,1768872624.51239
1768872624520.2026,1352.3809523809523,,1,4,1768872624.5202026
1768872624528.0151,1345.054945054945,,1,4,1768872624.5280151
1768872624535.8276,1336.263736263736,,1,4,1768872624.5358276
1768872624543.64,1326.007326007326,,1,4,1768872624.54364
1768872624551.4526,1319.4139194139193,,1,4,1768872624.5514526
1768872624559.2651,1309.1575091575091,,1,4,1768872624.5592651
1768872624567.0776,1303.2967032967033,,1,4,1768872624.5670776
1768872624574.89,1294.5054945054944,,1,4,1768872624.57489
1768872624582.7026,1293.040293040293,,1,4,1768872624.5827026
1768872624590.5151,1291.5750915750914,,1,4,1768872624.5905151
1768872624598.3276,1295.970695970696,,1,4,1768872624.5983276
1768872624606.14,1295.2380952380952,,1,4,1768872624.60614
1768872624613.9526,1299.6336996336995,,1,4,1768872624.6139526
1768872624621.7651,1301.098901098901,,1,4,1768872624.6217651
1768872624629.5776,1304.0293040293038,,1,4,1768872624.6295776
1768872624637.39,1308.4249084249084,,1,4,1768872624.63739
1768872624645.2026,1307.6923076923076,,1,4,1768872624.6452026
1768872624653.0151,1308.4249084249084,,1,4,1768872624.6530151
1768872624660.8276,1306.9597069597069,,1,4,1768872624.6608276
1768872624668.64,1303.2967032967033,,1,4,1768872624.66864
1768872624676.4526,1303.2967032967033,,1,4,1768872624.6764526
1768872624684.2651,1294.5054945054944,,1,4,1768872624.6842651
1768872624692.0776,1286.4468864468863,,1,4,1768872624.6920776
1768872624699.89,1280.5860805860805,,1,4,1768872624.69989
1768872624707.7026,1277.6556776556777,,1,4,1768872624.7077026
1768872624715.5151,1282.051282051282,,1,4,1768872624.7155151
1768872624723.3276,1282.7838827838827,,1,4,1768872624.7233276
1768872624731.14,1290.10989010989,,1,4,1768872624.73114
1768872624738.9526,1292.3076923076922,,1,4,1768872624.7389526
1768872624746.7651,1291.5750915750914,,1,4,1768872624.7467651
1768872624754.5776,1287.179487179487,,1,4,1768872624.7545776
1768872624762.39,1274.7252747252746,,1,4,1768872624.76239
1768872624770.2026,1268.8644688644688,,1,4,1768872624.7702026
1768872624778.0151,1257.875457875458,,1,4,1768872624.7780151
1768872624785.8276,1254.212454212454,,1,4,1768872624.7858276
1768872624793.64,1248.3516483516482,,1,4,1768872624.79364
1768872624801.4526,1238.8278388278388,,1,4,1768872624.8014526
1768872624809.2651,1231.5018315018317,,1,4,1768872624.8092651
1768872624817.0776,1229.3040293040292,,1,4,1768872624.8170776
1768872624824.89,1227.106227106227,,1,4,1768872624.82489
1768872624832.7026,1232.2344322344322,,1,4,1768872624.8327026
1768872624840.5151,1232.967032967033,,1,4,1768872624.8405151
1768872624848.3276,1232.2344322344322,,1,4,1768872624.8483276
1768872624856.14,1235.8974358974358,,1,4,1768872624.85614
1768872624863.9526,1237.362637362637,,1,4,1768872624.8639526
1768872624871.7651,1234.4322344322345,,1,4,1768872624.8717651
1768872624879.5776,1236.6300366300366,,1,4,1768872624.8795776
1768872624887.39,1242.4908424908424,,1,4,1768872624.88739
1768872624895.2026,1248.3516483516482,,1,4,1768872624.8952026
1768872624903.0151,1262.2710622710622,,1,4,1768872624.9030151
1768872624910.8276,1276.190476190476,,1,4,1768872624.9108276
1768872624918.64,1298.9010989010987,,1,4,1768872624.91864
1768872624926.4526,1316.4835164835165,,1,4,1768872624.9264526
1768872624934.2651,1337.7289377289376,,1,4,1768872624.9342651
1768872624942.0776,1358.974358974359,,1,4,1768872624.9420776
1768872624949.89,1378.021978021978,,1,4,1768872624.94989
1768872624957.7026,1399.2673992673992,,1,4,1768872624.9577026
1768872624965.5151,1414.6520146520145,,1,4,1768872624.9655151
1768872624973.3276,1430.03663003663,,1,4,1768872624.9733276
1768872624981.14,1438.095238095238,,1,4,1768872624.98114
1768872624988.9526,1446.153846153846,,1,4,1768872624.9889526
1768872624996.7651,1446.8864468864467,,1,4,1768872624.9967651
1768872625004.5776,1448.3516483516482,,1,4,1768872625.0045776
1768872625012.39,1453.479853479853,,1,4,1768872625.01239
1768872625020.2026,1456.4102564102564,,1,4,1768872625.0202026
1768872625028.0151,1463.003663003663,,1,4,1768872625.0280151
1768872625035.8276,1458.6080586080584,,1,4,1768872625.0358276
1768872625043.64,1456.4102564102564,,1,4,1768872625.04364
1768872625051.4526,1444.688644688645,,1,4,1768872625.0514526
1768872625059.2651,1435.164835164835,,1,4,1768872625.0592651
1768872625067.0776,1421.245421245421,,1,4,1768872625.0670776
1768872625074.89,1414.6520146520145,,1,4,1768872625.07489
1768872625082.7026,1404.3956043956043,,1,4,1768872625.0827026
1768872625090.5151,1399.2673992673992,,1,4,1768872625.0905151
1768872625098.3276,1389.0109890109889,,1,4,1768872625.0983276
1768872625106.14,1380.2197802197802,,1,4,1768872625.10614
1768872625113.9526,1369.230769230769,,1,4,1768872625.1139526
1768872625121.7651,1356.7765567765566,,1,4,1768872625.1217651
1768872625129.5776,1350.18315018315,,1,4,1768872625.1295776
1768872625137.39,1339.92673992674,,1,4,1768872625.13739
1768872625145.2026,1332.6007326007325,,1,4,1768872625.1452026
1768872625153.0151,1316.4835164835165,,1,4,1768872625.1530151
1768872625160.8276,1301.8315018315018,,1,4,1768872625.1608276
1768872625168.64,1286.4468864468863,,1,4,1768872625.16864
1768872625176.4526,1282.051282051282,,1,4,1768872625.1764526
1768872625184.2651,1277.6556776556777,,1,4,1768872625.1842651
1768872625192.0776,1278.3882783882782,,1,4,1768872625.1920776
1768872625199.89,1280.5860805860805,,1,4,1768872625.19989
1768872625207.7026,1284.2490842490845,,1,4,1768872625.2077026
1768872625215.5151,1293.040293040293,,1,4,1768872625.2155151
1768872625223.3276,1297.4358974358977,,1,4,1768872625.2233276
1768872625231.14,1300.3663003663005,,1,4,1768872625.23114
1768872625238.9526,1303.2967032967033,,1,4,1768872625.2389526
1768872625246.7651,1304.7619047619046,,1,4,1768872625.2467651
1768872625254.5776,1305.4945054945051,,1,4,1768872625.2545776
1768872625262.39,1309.89010989011,,1,4,1768872625.26239
1768872625270.2026,1313.5531135531137,,1,4,1768872625.2702026
1768872625278.0151,1315.018315018315,,1,4,1768872625.2780151
1768872625285.8276,1319.4139194139193,,1,4,1768872625.2858276
1768872625293.64,1325.2747252747251,,1,4,1768872625.29364
1768872625301.4526,1324.5421245421244,,1,4,1768872625.3014526
1768872625309.2651,1323.8095238095236,,1,4,1768872625.3092651
1768872625317.0776,1321.6117216117216,,1,4,1768872625.3170776
1768872625324.89,1312.8205128205127,,1,4,1768872625.32489
1768872625332.7026,1303.2967032967033,,1,4,1768872625.3327026
1768872625340.5151,1295.2380952380952,,1,4,1768872625.3405151
1768872625348.3276,1287.9120879120878,,1,4,1768872625.3483276
1768872625356.14,1284.9816849816848,,1,4,1768872625.35614
1768872625363.9526,1281.3186813186812,,1,4,1768872625.3639526
1768872625371.7651,1279.120879120879,,1,4,1768872625.3717651
1768872625379.5776,1278.3882783882782,,1,4,1768872625.3795776
1768872625387.39,1276.923076923077,,1,4,1768872625.38739
1768872625395.2026,1271.062271062271,,1,4,1768872625.3952026
1768872625403.0151,1262.2710622710622,,1,4,1768872625.4030151
1768872625410.8276,1254.212454212454,,1,4,1768872625.4108276
1768872625418.64,1249.8168498168498,,1,4,1768872625.41864
1768872625426.4526,1247.6190476190477,,1,4,1768872625.4264526
1768872625434.2651,1246.8864468864467,,1,4,1768872625.4342651
1768872625442.0776,1251.2820512820513,,1,4,1768872625.4420776
1768872625449.89,1254.212454212454,,1,4,1768872625.44989
1768872625457.7026,1256.4102564102564,,1,4,1768872625.4577026
1768872625465.5151,1257.875457875458,,1,4,1768872625.4655151
1768872625473.3276,1264.4688644688645,,1,4,1768872625.4733276
1768872625481.14,1276.190476190476,,1,4,1768872625.48114
1768872625488.9526,1292.3076923076922,,1,4,1768872625.4889526
1768872625496.7651,1310.6227106227104,,1,4,1768872625.4967651
1768872625504.5776,1328.2051282051282,,1,4,1768872625.5045776
1768872625512.39,1350.18315018315,,1,4,1768872625.51239
1768872625520.2026,1374.3589743589744,,1,4,1768872625.5202026
1768872625528.0151,1395.6043956043954,,0,-1,1768872625.5280151
1768872625535.8276,1413.1868131868132,,0,-1,1768872625.5358276
1768872625543.64,1428.5714285714284,,0,-1,1768872625.54364
1768872625551.4526,1446.153846153846,,0,-1,1768872625.5514526
1768872625559.2651,1460.07326007326,,0,-1,1768872625.5592651
1768872625567.0776,1470.3296703296703,,0,-1,1768872625.5670776
1768872625574.89,1482.051282051282,,0,-1,1768872625.57489
1768872625582.7026,1492.3076923076922,,0,-1,1768872625.5827026
1768872625590.5151,1497.4358974358972,,0,-1,1768872625.5905151
1768872625598.3276,1497.4358974358972,,0,-1,1768872625.5983276
1768872625606.14,1491.5750915750914,,0,-1,1768872625.60614
1768872625613.9526,1483.5164835164835,,0,-1,1768872625.6139526
1768872625621.7651,1475.4578754578754,,0,-1,1768872625.6217651
1768872625629.5776,1465.9340659340658,,0,-1,1768872625.6295776
1768872625637.39,1449.084249084249,,0,-1,1768872625.63739
1768872625645.2026,1429.3040293040292,,0,-1,1768872625.6452026
1768872625653.0151,1413.1868131868132,,0,-1,1768872625.6530151
1768872625660.8276,1396.3369963369962,,0,-1,1768872625.6608276
1768872625668.64,1387.5457875457876,,0,-1,1768872625.66864
1768872625676.4526,1379.4871794871794,,0,-1,1768872625.6764526
1768872625684.2651,1370.6959706959706,,0,-1,1768872625.6842651
1768872625692.0776,1360.4395604395604,,0,-1,1768872625.6920776
1768872625699.89,1350.9157509157508,,0,-1,1768872625.69989
1768872625707.7026,1350.18315018315,,0,-1,1768872625.7077026
1768872625715.5151,1351.6483516483515,,0,-1,1768872625.7155151
1768872625723.3276,1353.113553113553,,0,-1,1768872625.7233276
1768872625731.14,1352.3809523809523,,0,-1,1768872625.73114
1768872625738.9526,1351.6483516483515,,0,-1,1768872625.7389526
1768872625746.7651,1350.18315018315,,0,-1,1768872625.7467651
1768872625754.5776,1350.9157509157508,,0,-1,1768872625.7545776
1768872625762.39,1349.4505494505493,,0,-1,1768872625.76239
1768872625770.2026,1352.3809523809523,,0,-1,1768872625.7702026
1768872625778.0151,1355.311355311355,,0,-1,1768872625.7780151
1768872625785.8276,1361.1721611721612,,0,-1,1768872625.7858276
1768872625793.64,1369.9633699633698,,0,-1,1768872625.79364
1768872625801.4526,1380.2197802197802,,0,-1,1768872625.8014526
1768872625809.2651,1389.7435897435896,,0,-1,1768872625.8092651
1768872625817.0776,1396.3369963369962,,0,-1,1768872625.8170776
1768872625824.89,1400.0,,0,-1,1768872625.82489
1768872625832.7026,1404.3956043956043,,0,-1,1768872625.8327026
1768872625840.5151,1407.3260073260071,,0,-1,1768872625.8405151
1768872625848.3276,1410.989010989011,,0,-1,1768872625.8483276
1768872625856.14,1417.5824175824175,,0,-1,1768872625.85614
1768872625863.9526,1423.4432234432234,,0,-1,1768872625.8639526
1768872625871.7651,1430.03663003663,,0,-1,1768872625.8717651
1768872625879.5776,1443.2234432234432,,0,-1,1768872625.8795776
1768872625887.39,1459.3406593406592,,0,-1,1768872625.88739
1768872625895.2026,1478.3882783882782,,0,-1,1768872625.8952026
1768872625903.0151,1498.168498168498,,0,-1,1768872625.9030151
1768872625910.8276,1519.4139194139193,,0,-1,1768872625.9108276
1768872625918.64,1540.6593406593406,,0,-1,1768872625.91864
1768872625926.4526,1561.9047619047617,,0,-1,1768872625.9264526
1768872625934.2651,1583.150183150183,,0,-1,1768872625.9342651
1768872625942.0776,1599.2673992673992,,0,-1,1768872625.9420776
1768872625949.89,1612.4542124542124,,0,-1,1768872625.94989
1768872625957.7026,1622.7106227106226,,0,-1,1768872625.9577026
1768872625965.5151,1630.03663003663,,0,-1,1768872625.9655151
1768872625973.3276,1640.29304029304,,0,-1,1768872625.9733276
1768872625981.14,1652.0146520146518,,0,-1,1768872625.98114
1768872625988.9526,1665.9340659340658,,0,-1,1768872625.9889526
1768872625996.7651,1676.923076923077,,0,-1,1768872625.9967651
1768872626004.5776,1685.7142857142856,,0,-1,1768872626.0045776
1768872626012.39,1692.3076923076922,,0,-1,1768872626.01239
1768872626020.2026,1692.3076923076922,,0,-1,1768872626.0202026
1768872626028.0151,1684.9816849816848,,0,-1,1768872626.0280151
1768872626035.8276,1676.923076923077,,0,-1,1768872626.0358276
1768872626043.64,1671.7948717948716,,0,-1,1768872626.04364
1768872626051.4526,1670.3296703296703,,0,-1,1768872626.0514526
1768872626059.2651,1679.120879120879,,0,-1,1768872626.0592651
1768872626067.0776,1701.8315018315018,,0,-1,1768872626.0670776
1768872626074.89,1739.194139194139,,0,-1,1768872626.07489
1768872626082.7026,1793.4065934065932,,0,-1,1768872626.0827026
1768872626090.5151,1875.4578754578756,,0,-1,1768872626.0905151
1768872626098.3276,1989.7435897435896,,0,-1,1768872626.0983276
1768872626106.14,2115.750915750916,,0,-1,1768872626.10614
1768872626113.9526,2239.56043956044,,0,-1,1768872626.1139526
1768872626121.7651,2344.322344322344,,0,-1,1768872626.1217651
1768872626129.5776,2427.106227106227,,0,-1,1768872626.1295776
1768872626137.39,2480.58608058608,,0,-1,1768872626.13739
1768872626145.2026,2503.296703296703,,0,-1,1768872626.1452026
1768872626153.0151,2493.772893772893,,0,-1,1768872626.1530151
1768872626160.8276,2462.271062271062,,0,-1,1768872626.1608276
1768872626168.64,2411.721611721612,,0,-1,1768872626.16864
1768872626176.4526,2350.915750915751,,0,-1,1768872626.1764526
1768872626184.2651,2281.318681318681,,0,-1,1768872626.1842651
1768872626192.0776,2209.523809523809,,0,-1,1768872626.1920776
1768872626199.89,2140.6593406593406,,0,-1,1768872626.19989
1768872626207.7026,2072.5274725274726,,0,-1,1768872626.2077026
1768872626215.5151,2004.3956043956043,,0,-1,1768872626.2155151
1768872626223.3276,1939.194139194139,,0,-1,1768872626.2233276
1768872626231.14,1882.051282051282,,0,-1,1768872626.23114
1768872626238.9526,1832.234432234432,,0,-1,1768872626.2389526
1768872626246.7651,1787.545787545787,,0,-1,1768872626.2467651
1768872626254.5776,1749.4505494505493,,0,-1,1768872626.2545776
1768872626262.39,1715.7509157509155,,0,-1,1768872626.26239
1768872626270.2026,1684.9816849816848,,0,-1,1768872626.2702026
1768872626278.0151,1654.9450549450548,,0,-1,1768872626.2780151
1768872626285.8276,1625.6410256410256,,0,-1,1768872626.2858276
1768872626293.64,1597.8021978021975,,0,-1,1768872626.29364
1768872626301.4526,1570.6959706959706,,0,-1,1768872626.3014526
1768872626309.2651,1547.2527472527472,,0,-1,1768872626.3092651
1768872626317.0776,1525.2747252747251,,0,-1,1768872626.3170776
1768872626324.89,1509.1575091575091,,0,-1,1768872626.32489
1768872626332.7026,1501.098901098901,,0,-1,1768872626.3327026
1768872626340.5151,1498.168498168498,,0,-1,1768872626.3405151
1768872626348.3276,1494.5054945054944,,0,-1,1768872626.3483276
1768872626356.14,1494.5054945054944,,0,-1,1768872626.35614
1768872626363.9526,1493.040293040293,,0,-1,1768872626.3639526
1768872626371.7651,1489.3772893772891,,0,-1,1768872626.3717651
1768872626379.5776,1481.3186813186812,,0,-1,1768872626.3795776
1768872626387.39,1477.6556776556777,,0,-1,1768872626.38739
1768872626395.2026,1475.4578754578754,,0,-1,1768872626.3952026
1768872626403.0151,1473.260073260073,,0,-1,1768872626.4030151
1768872626410.8276,1479.8534798534797,,0,-1,1768872626.4108276
1768872626418.64,1490.10989010989,,0,-1,1768872626.41864
1768872626426.4526,1498.168498168498,,0,-1,1768872626.4264526
1768872626434.2651,1507.6923076923076,,0,-1,1768872626.4342651
1768872626442.0776,1516.4835164835165,,0,-1,1768872626.4420776
1768872626449.89,1518.6813186813183,,0,-1,1768872626.44989
1768872626457.7026,1516.4835164835165,,0,-1,1768872626.4577026
1768872626465.5151,1512.8205128205127,,0,-1,1768872626.4655151
1768872626473.3276,1504.0293040293038,,0,-1,1768872626.4733276
1768872626481.14,1494.5054945054944,,0,-1,1768872626.48114
1768872626488.9526,1478.3882783882782,,0,-1,1768872626.4889526
1768872626496.7651,1453.479853479853,,0,-1,1768872626.4967651
1768872626504.5776,1427.8388278388277,,0,-1,1768872626.5045776
1768872626512.39,1405.8608058608058,,0,-1,1768872626.51239
1768872626520.2026,1381.6849816849815,,0,-1,1768872626.5202026
1768872626528.0151,1363.3699633699632,,0,-1,1768872626.5280151
1768872626535.8276,1347.985347985348,,0,-1,1768872626.5358276
1768872626543.64,1336.9963369963368,,0,-1,1768872626.54364
1768872626551.4526,1336.9963369963368,,0,-1,1768872626.5514526
1768872626559.2651,1343.5897435897434,,0,-1,1768872626.5592651
1768872626567.0776,1348.7179487179487,,0,-1,1768872626.5670776
1768872626574.89,1351.6483516483515,,0,-1,1768872626.57489
1768872626582.7026,1354.5787545787546,,0,-1,1768872626.5827026
1768872626590.5151,1353.8461538461538,,0,-1,1768872626.5905151
1768872626598.3276,1352.3809523809523,,0,-1,1768872626.5983276
1768872626606.14,1353.8461538461538,,0,-1,1768872626.60614
1768872626613.9526,1355.311355311355,,0,-1,1768872626.6139526
1768872626621.7651,1355.311355311355,,0,-1,1768872626.6217651
1768872626629.5776,1356.7765567765566,,0,-1,1768872626.6295776
1768872626637.39,1362.6373626373625,,0,-1,1768872626.63739
1768872626645.2026,1375.091575091575,,0,-1,1768872626.6452026
1768872626653.0151,1396.3369963369962,,0,-1,1768872626.6530151
1768872626660.8276,1420.5128205128203,,0,-1,1768872626.6608276
1768872626668.64,1443.2234432234432,,0,-1,1768872626.66864
1768872626676.4526,1471.062271062271,,0,-1,1768872626.6764526
1768872626684.2651,1496.7032967032967,,0,-1,1768872626.6842651
1768872626692.0776,1517.9487179487178,,0,-1,1768872626.6920776
1768872626699.89,1540.6593406593406,,0,-1,1768872626.69989
1768872626707.7026,1552.3809523809523,,0,-1,1768872626.7077026
1768872626715.5151,1564.102564102564,,0,-1,1768872626.7155151
1768872626723.3276,1571.428571428571,,0,-1,1768872626.7233276
1768872626731.14,1569.9633699633698,,0,-1,1768872626.73114
1768872626738.9526,1567.7655677655678,,0,-1,1768872626.7389526
1768872626746.7651,1565.5677655677655,,0,-1,1768872626.7467651
1768872626754.5776,1558.241758241758,,0,-1,1768872626.7545776
1768872626762.39,1545.7875457875457,,0,-1,1768872626.76239
1768872626770.2026,1534.065934065934,,0,-1,1768872626.7702026
1768872626778.0151,1521.6117216117216,,0,-1,1768872626.7780151
1768872626785.8276,1505.4945054945051,,0,-1,1768872626.7858276
1768872626793.64,1489.3772893772891,,0,-1,1768872626.79364
1768872626801.4526,1478.3882783882782,,0,-1,1768872626.8014526
1768872626809.2651,1466.6666666666663,,0,-1,1768872626.8092651
1768872626817.0776,1457.875457875458,,0,-1,1768872626.8170776
1768872626824.89,1448.3516483516482,,0,-1,1768872626.82489
1768872626832.7026,1441.0256410256409,,0,-1,1768872626.8327026
1768872626840.5151,1430.7692307692307,,0,-1,1768872626.8405151
1768872626848.3276,1426.3736263736262,,0,-1,1768872626.8483276
1768872626856.14,1420.5128205128203,,0,-1,1768872626.85614
1768872626863.9526,1418.3150183150185,,0,-1,1768872626.8639526
1768872626871.7651,1409.5238095238094,,0,-1,1768872626.8717651
1768872626879.5776,1403.6630036630036,,0,-1,1768872626.8795776
1768872626887.39,1391.2087912087911,,0,-1,1768872626.88739
1768872626895.2026,1384.6153846153843,,0,-1,1768872626.8952026
1768872626903.0151,1375.8241758241757,,0,-1,1768872626.9030151
1768872626910.8276,1365.5677655677655,,0,-1,1768872626.9108276
1768872626918.64,1359.7069597069597,,0,-1,1768872626.91864
1768872626926.4526,1350.9157509157508,,0,-1,1768872626.9264526
1768872626934.2651,1350.9157509157508,,0,-1,1768872626.9342651
1768872626942.0776,1350.18315018315,,0,-1,1768872626.9420776
1768872626949.89,1356.043956043956,,0,-1,1768872626.94989
1768872626957.7026,1361.1721611721612,,0,-1,1768872626.9577026
1768872626965.5151,1367.7655677655678,,0,-1,1768872626.9655151
1768872626973.3276,1375.091575091575,,0,-1,1768872626.9733276
1768872626981.14,1376.5567765567764,,0,-1,1768872626.98114
1768872626988.9526,1375.091575091575,,0,-1,1768872626.9889526
1768872626996.7651,1368.4981684981683,,0,-1,1768872626.9967651
1768872627004.5776,1362.6373626373625,,0,-1,1768872627.0045776
1768872627012.39,1353.8461538461538,,0,-1,1768872627.01239
1768872627020.2026,1351.6483516483515,,0,-1,1768872627.0202026
1768872627028.0151,1344.3223443223442,,1,5,1768872627.0280151
1768872627035.8276,1339.92673992674,,1,5,1768872627.0358276
1768872627043.64,1333.3333333333333,,1,5,1768872627.04364
1768872627051.4526,1332.6007326007325,,1,5,1768872627.0514526
1768872627059.2651,1333.3333333333333,,1,5,1768872627.0592651
1768872627067.0776,1334.7985347985348,,1,5,1768872627.0670776
1768872627074.89,1341.3919413919414,,1,5,1768872627.07489
1768872627082.7026,1346.5201465201465,,1,5,1768872627.0827026
1768872627090.5151,1346.5201465201465,,1,5,1768872627.0905151
1768872627098.3276,1345.054945054945,,1,5,1768872627.0983276
1768872627106.14,1338.4615384615383,,1,5,1768872627.10614
1768872627113.9526,1337.7289377289376,,1,5,1768872627.1139526
1768872627121.7651,1332.6007326007325,,1,5,1768872627.1217651
1768872627129.5776,1335.5311355311355,,1,5,1768872627.1295776
1768872627137.39,1344.3223443223442,,1,5,1768872627.13739
1768872627145.2026,1353.113553113553,,1,5,1768872627.1452026
1768872627153.0151,1367.032967032967,,1,5,1768872627.1530151
1768872627160.8276,1378.7545787545787,,1,5,1768872627.1608276
1768872627168.64,1386.080586080586,,1,5,1768872627.16864
1768872627176.4526,1394.8717948717947,,1,5,1768872627.1764526
1768872627184.2651,1404.3956043956043,,1,5,1768872627.1842651
1768872627192.0776,1413.1868131868132,,1,5,1768872627.1920776
1768872627199.89,1427.8388278388277,,1,5,1768872627.19989
1768872627207.7026,1443.2234432234432,,1,5,1768872627.2077026
1768872627215.5151,1462.2710622710622,,1,5,1768872627.2155151
1768872627223.3276,1484.9816849816848,,1,5,1768872627.2233276
1768872627231.14,1502.5641025641023,,1,5,1768872627.23114
1768872627238.9526,1527.4725274725274,,1,5,1768872627.2389526
1768872627246.7651,1548.7179487179485,,1,5,1768872627.2467651
1768872627254.5776,1564.8351648351647,,1,5,1768872627.2545776
1768872627262.39,1583.150183150183,,1,5,1768872627.26239
1768872627270.2026,1597.069597069597,,1,5,1768872627.2702026
1768872627278.0151,1613.9194139194135,,1,5,1768872627.2780151
1768872627285.8276,1624.9084249084249,,1,5,1768872627.2858276
1768872627293.64,1625.6410256410256,,1,5,1768872627.29364
1768872627301.4526,1623.4432234432234,,1,5,1768872627.3014526
1768872627309.2651,1618.3150183150185,,1,5,1768872627.3092651
1768872627317.0776,1608.058608058608,,1,5,1768872627.3170776
1768872627324.89,1596.3369963369962,,1,5,1768872627.32489
1768872627332.7026,1585.3479853479853,,1,5,1768872627.3327026
1768872627340.5151,1575.091575091575,,1,5,1768872627.3405151
1768872627348.3276,1561.1721611721612,,1,5,1768872627.3483276
1768872627356.14,1549.4505494505493,,1,5,1768872627.35614
1768872627363.9526,1538.4615384615383,,1,5,1768872627.3639526
1768872627371.7651,1523.0769230769229,,1,5,1768872627.3717651
1768872627379.5776,1510.6227106227104,,1,5,1768872627.3795776
1768872627387.39,1495.970695970696,,1,5,1768872627.38739
1768872627395.2026,1479.8534798534797,,1,5,1768872627.3952026
1768872627403.0151,1468.8644688644688,,1,5,1768872627.4030151
1768872627410.8276,1462.2710622710622,,1,5,1768872627.4108276
1768872627418.64,1454.9450549450548,,1,5,1768872627.41864
1768872627426.4526,1450.5494505494505,,1,5,1768872627.4264526
1768872627434.2651,1447.6190476190477,,1,5,1768872627.4342651
1768872627442.0776,1438.8278388278388,,1,5,1768872627.4420776
1768872627449.89,1435.164835164835,,1,5,1768872627.44989
1768872627457.7026,1432.9670329670328,,1,5,1768872627.4577026
1768872627465.5151,1427.106227106227,,1,5,1768872627.4655151
1768872627473.3276,1418.3150183150185,,1,5,1768872627.4733276
1768872627481.14,1413.1868131868132,,1,5,1768872627.48114
1768872627488.9526,1407.3260073260071,,1,5,1768872627.4889526
1768872627496.7651,1399.2673992673992,,1,5,1768872627.4967651
1768872627504.5776,1391.2087912087911,,1,5,1768872627.5045776
1768872627512.39,1383.8827838827838,,1,5,1768872627.51239
1768872627520.2026,1377.2893772893772,,1,5,1768872627.5202026
1768872627528.0151,1369.9633699633698,,1,5,1768872627.5280151
1768872627535.8276,1360.4395604395604,,1,5,1768872627.5358276
1768872627543.64,1354.5787545787546,,1,5,1768872627.54364
1768872627551.4526,1353.113553113553,,1,5,1768872627.5514526
1768872627559.2651,1351.6483516483515,,1,5,1768872627.5592651
1768872627567.0776,1350.18315018315,,1,5,1768872627.5670776
1768872627574.89,1353.8461538461538,,1,5,1768872627.57489
1768872627582.7026,1356.7765567765566,,1,5,1768872627.5827026
1768872627590.5151,1358.241758241758,,1,5,1768872627.5905151
1768872627598.3276,1356.7765567765566,,1,5,1768872627.5983276
1768872627606.14,1353.8461538461538,,1,5,1768872627.60614
1768872627613.9526,1353.113553113553,,1,5,1768872627.6139526
1768872627621.7651,1348.7179487179487,,1,5,1768872627.6217651
1768872627629.5776,1343.5897435897434,,1,5,1768872627.6295776
1768872627637.39,1336.9963369963368,,1,5,1768872627.63739
1768872627645.2026,1326.007326007326,,1,5,1768872627.6452026
1768872627653.0151,1315.7509157509155,,1,5,1768872627.6530151
1768872627660.8276,1309.89010989011,,1,5,1768872627.6608276
1768872627668.64,1309.89010989011,,1,5,1768872627.66864
1768872627676.4526,1314.2857142857142,,1,5,1768872627.6764526
1768872627684.2651,1312.8205128205127,,1,5,1768872627.6842651
1768872627692.0776,1309.1575091575091,,1,5,1768872627.6920776
1768872627699.89,1305.4945054945051,,1,5,1768872627.69989
1768872627707.7026,1301.098901098901,,1,5,1768872627.7077026
1768872627715.5151,1296.7032967032967,,1,5,1768872627.7155151
1768872627723.3276,1290.8424908424909,,1,5,1768872627.7233276
1768872627731.14,1284.2490842490845,,1,5,1768872627.73114
1768872627738.9526,1279.8534798534797,,1,5,1768872627.7389526
1768872627746.7651,1280.5860805860805,,1,5,1768872627.7467651
1768872627754.5776,1282.7838827838827,,1,5,1768872627.7545776
1768872627762.39,1284.2490842490845,,1,5,1768872627.76239
1768872627770.2026,1284.9816849816848,,1,5,1768872627.7702026
1768872627778.0151,1285.7142857142856,,1,5,1768872627.7780151
1768872627785.8276,1286.4468864468863,,1,5,1768872627.7858276
1768872627793.64,1290.8424908424909,,1,5,1768872627.79364
1768872627801.4526,1301.8315018315018,,1,5,1768872627.8014526
1768872627809.2651,1318.6813186813183,,1,5,1768872627.8092651
1768872627817.0776,1339.194139194139,,1,5,1768872627.8170776
1768872627824.89,1361.904761904762,,1,5,1768872627.82489
1768872627832.7026,1381.6849816849815,,1,5,1768872627.8327026
1768872627840.5151,1399.2673992673992,,1,5,1768872627.8405151
1768872627848.3276,1415.3846153846152,,1,5,1768872627.8483276
1768872627856.14,1432.2344322344322,,1,5,1768872627.85614
1768872627863.9526,1449.8168498168498,,1,5,1768872627.8639526
1768872627871.7651,1465.201465201465,,1,5,1768872627.8717651
1768872627879.5776,1475.4578754578754,,1,5,1768872627.8795776
1768872627887.39,1478.3882783882782,,1,5,1768872627.88739
1768872627895.2026,1479.120879120879,,1,5,1768872627.8952026
1768872627903.0151,1476.190476190476,,1,5,1768872627.9030151
1768872627910.8276,1472.5274725274724,,1,5,1768872627.9108276
1768872627918.64,1466.6666666666663,,1,5,1768872627.91864
1768872627926.4526,1457.875457875458,,1,5,1768872627.9264526
1768872627934.2651,1446.8864468864467,,1,5,1768872627.9342651
1768872627942.0776,1436.6300366300366,,1,5,1768872627.9420776
1768872627949.89,1428.5714285714284,,1,5,1768872627.94989
1768872627957.7026,1424.9084249084249,,1,5,1768872627.9577026
1768872627965.5151,1423.4432234432234,,1,5,1768872627.9655151
1768872627973.3276,1421.9780219780218,,1,5,1768872627.9733276
1768872627981.14,1421.9780219780218,,1,5,1768872627.98114
1768872627988.9526,1418.3150183150185,,1,5,1768872627.9889526
1768872627996.7651,1409.5238095238094,,1,5,1768872627.9967651
1768872628004.5776,1396.3369963369962,,1,5,1768872628.0045776
1768872628012.39,1378.7545787545787,,1,5,1768872628.01239
1768872628020.2026,1365.5677655677655,,1,5,1768872628.0202026
1768872628028.0151,1353.8461538461538,,1,5,1768872628.0280151
1768872628035.8276,1346.5201465201465,,1,5,1768872628.0358276
1768872628043.64,1341.3919413919414,,1,5,1768872628.04364
1768872628051.4526,1339.92673992674,,1,5,1768872628.0514526
1768872628059.2651,1340.6593406593406,,1,5,1768872628.0592651
1768872628067.0776,1345.7875457875457,,1,5,1768872628.0670776
1768872628074.89,1353.113553113553,,1,5,1768872628.07489
1768872628082.7026,1357.5091575091574,,1,5,1768872628.0827026
1768872628090.5151,1354.5787545787546,,1,5,1768872628.0905151
1768872628098.3276,1345.054945054945,,1,5,1768872628.0983276
1768872628106.14,1333.3333333333333,,1,5,1768872628.10614
1768872628113.9526,1325.2747252747251,,1,5,1768872628.1139526
1768872628121.7651,1319.4139194139193,,1,5,1768872628.1217651
1768872628129.5776,1315.7509157509155,,1,5,1768872628.1295776
1768872628137.39,1312.087912087912,,1,5,1768872628.13739
1768872628145.2026,1308.4249084249084,,1,5,1768872628.1452026
1768872628153.0151,1305.4945054945051,,1,5,1768872628.1530151
1768872628160.8276,1306.9597069597069,,1,5,1768872628.1608276
1768872628168.64,1308.4249084249084,,1,5,1768872628.16864
1768872628176.4526,1310.6227106227104,,1,5,1768872628.1764526
1768872628184.2651,1311.3553113553112,,1,5,1768872628.1842651
1768872628192.0776,1311.3553113553112,,1,5,1768872628.1920776
1768872628199.89,1309.1575091575091,,1,5,1768872628.19989
1768872628207.7026,1308.4249084249084,,1,5,1768872628.2077026
1768872628215.5151,1306.9597069597069,,1,5,1768872628.2155151
1768872628223.3276,1306.9597069597069,,1,5,1768872628.2233276
1768872628231.14,1305.4945054945051,,1,5,1768872628.23114
1768872628238.9526,1303.2967032967033,,1,5,1768872628.2389526
1768872628246.7651,1303.2967032967033,,1,5,1768872628.2467651
1768872628254.5776,1306.9597069597069,,1,5,1768872628.2545776
1768872628262.39,1309.89010989011,,1,5,1768872628.26239
1768872628270.2026,1312.8205128205127,,1,5,1768872628.2702026
1768872628278.0151,1312.087912087912,,1,5,1768872628.2780151
1768872628285.8276,1308.4249084249084,,1,5,1768872628.2858276
1768872628293.64,1303.2967032967033,,1,5,1768872628.29364
1768872628301.4526,1301.098901098901,,1,5,1768872628.3014526
1768872628309.2651,1298.9010989010987,,1,5,1768872628.3092651
1768872628317.0776,1298.9010989010987,,1,5,1768872628.3170776
1768872628324.89,1296.7032967032967,,0,-1,1768872628.32489
1768872628332.7026,1293.7728937728937,,0,-1,1768872628.3327026
1768872628340.5151,1289.3772893772891,,0,-1,1768872628.3405151
1768872628348.3276,1283.5164835164835,,0,-1,1768872628.3483276
1768872628356.14,1274.7252747252746,,0,-1,1768872628.35614
1768872628363.9526,1270.3296703296703,,0,-1,1768872628.3639526
1768872628371.7651,1269.5970695970695,,0,-1,1768872628.3717651
1768872628379.5776,1272.5274725274724,,0,-1,1768872628.3795776
1768872628387.39,1282.051282051282,,0,-1,1768872628.38739
1768872628395.2026,1297.4358974358977,,0,-1,1768872628.3952026
1768872628403.0151,1316.4835164835165,,0,-1,1768872628.4030151
1768872628410.8276,1331.8681318681315,,0,-1,1768872628.4108276
1768872628418.64,1342.124542124542,,0,-1,1768872628.41864
1768872628426.4526,1349.4505494505493,,0,-1,1768872628.4264526
1768872628434.2651,1347.2527472527472,,0,-1,1768872628.4342651
1768872628442.0776,1336.9963369963368,,0,-1,1768872628.4420776
1768872628449.89,1326.739926739927,,0,-1,1768872628.44989
1768872628457.7026,1316.4835164835165,,0,-1,1768872628.4577026
1768872628465.5151,1305.4945054945051,,0,-1,1768872628.4655151
1768872628473.3276,1295.970695970696,,0,-1,1768872628.4733276
1768872628481.14,1292.3076923076922,,0,-1,1768872628.48114
1768872628488.9526,1290.10989010989,,0,-1,1768872628.4889526
1768872628496.7651,1287.9120879120878,,0,-1,1768872628.4967651
1768872628504.5776,1287.9120879120878,,0,-1,1768872628.5045776
1768872628512.39,1288.6446886446886,,0,-1,1768872628.51239
1768872628520.2026,1286.4468864468863,,0,-1,1768872628.5202026
1768872628528.0151,1279.120879120879,,0,-1,1768872628.5280151
1768872628535.8276,1271.7948717948716,,0,-1,1768872628.5358276
1768872628543.64,1260.07326007326,,0,-1,1768872628.54364
1768872628551.4526,1253.479853479853,,0,-1,1768872628.5514526
1768872628559.2651,1246.153846153846,,0,-1,1768872628.5592651
1768872628567.0776,1236.6300366300366,,0,-1,1768872628.5670776
1768872628574.89,1229.3040293040292,,0,-1,1768872628.57489
1768872628582.7026,1221.245421245421,,0,-1,1768872628.5827026
1768872628590.5151,1211.7216117216117,,0,-1,1768872628.5905151
1768872628598.3276,1200.7326007326008,,0,-1,1768872628.5983276
1768872628606.14,1194.1391941391942,,0,-1,1768872628.60614
1768872628613.9526,1189.0109890109889,,0,-1,1768872628.6139526
1768872628621.7651,1181.6849816849815,,0,-1,1768872628.6217651
1768872628629.5776,1172.8937728937728,,0,-1,1768872628.6295776
1768872628637.39,1167.032967032967,,0,-1,1768872628.63739
1768872628645.2026,1166.3003663003662,,0,-1,1768872628.6452026
1768872628653.0151,1167.032967032967,,0,-1,1768872628.6530151
1768872628660.8276,1172.161172161172,,0,-1,1768872628.6608276
1768872628668.64,1183.8827838827838,,0,-1,1768872628.66864
1768872628676.4526,1191.2087912087911,,0,-1,1768872628.6764526
1768872628684.2651,1199.2673992673992,,0,-1,1768872628.6842651
1768872628692.0776,1210.989010989011,,0,-1,1768872628.6920776
1768872628699.89,1219.7802197802198,,0,-1,1768872628.69989
1768872628707.7026,1226.3736263736264,,0,-1,1768872628.7077026
1768872628715.5151,1233.6996336996335,,0,-1,1768872628.7155151
1768872628723.3276,1244.688644688645,,0,-1,1768872628.7233276
1768872628731.14,1252.7472527472526,,0,-1,1768872628.73114
1768872628738.9526,1255.6776556776556,,0,-1,1768872628.7389526
1768872628746.7651,1260.07326007326,,0,-1,1768872628.7467651
1768872628754.5776,1258.6080586080586,,0,-1,1768872628.7545776
1768872628762.39,1255.6776556776556,,0,-1,1768872628.76239
1768872628770.2026,1253.479853479853,,0,-1,1768872628.7702026
1768872628778.0151,1250.5494505494505,,0,-1,1768872628.7780151
1768872628785.8276,1243.2234432234432,,0,-1,1768872628.7858276
1768872628793.64,1239.5604395604396,,0,-1,1768872628.79364
1768872628801.4526,1238.8278388278388,,0,-1,1768872628.8014526
1768872628809.2651,1234.4322344322345,,0,-1,1768872628.8092651
1768872628817.0776,1232.967032967033,,0,-1,1768872628.8170776
1768872628824.89,1238.095238095238,,0,-1,1768872628.82489
1768872628832.7026,1241.7582417582416,,0,-1,1768872628.8327026
1768872628840.5151,1249.8168498168498,,0,-1,1768872628.8405151
1768872628848.3276,1252.014652014652,,0,-1,1768872628.8483276
1768872628856.14,1246.8864468864467,,0,-1,1768872628.85614
1768872628863.9526,1249.084249084249,,0,-1,1768872628.8639526
1768872628871.7651,1256.4102564102564,,0,-1,1768872628.8717651
1768872628879.5776,1262.2710622710622,,0,-1,1768872628.8795776
1768872628887.39,1272.5274725274724,,0,-1,1768872628.88739
1768872628895.2026,1274.7252747252746,,0,-1,1768872628.8952026
1768872628903.0151,1277.6556776556777,,0,-1,1768872628.9030151
1768872628910.8276,1280.5860805860805,,0,-1,1768872628.9108276
1768872628918.64,1277.6556776556777,,0,-1,1768872628.91864
1768872628926.4526,1282.051282051282,,0,-1,1768872628.9264526
1768872628934.2651,1284.9816849816848,,0,-1,1768872628.9342651
1768872628942.0776,1288.6446886446886,,0,-1,1768872628.9420776
1768872628949.89,1295.2380952380952,,0,-1,1768872628.94989
1768872628957.7026,1295.970695970696,,0,-1,1768872628.9577026
1768872628965.5151,1300.3663003663005,,0,-1,1768872628.9655151
1768872628973.3276,1301.098901098901,,0,-1,1768872628.9733276
1768872628981.14,1312.087912087912,,0,-1,1768872628.98114
1768872628988.9526,1325.2747252747251,,0,-1,1768872628.9889526
1768872628996.7651,1340.6593406593406,,0,-1,1768872628.9967651
1768872629004.5776,1361.1721611721612,,0,-1,1768872629.0045776
1768872629012.39,1380.952380952381,,0,-1,1768872629.01239
1768872629020.2026,1398.5347985347985,,0,-1,1768872629.0202026
1768872629028.0151,1417.5824175824175,,0,-1,1768872629.0280151
1768872629035.8276,1430.7692307692307,,0,-1,1768872629.0358276
1768872629043.64,1439.5604395604394,,0,-1,1768872629.04364
1768872629051.4526,1448.3516483516482,,0,-1,1768872629.0514526
1768872629059.2651,1449.8168498168498,,0,-1,1768872629.0592651
1768872629067.0776,1453.479853479853,,0,-1,1768872629.0670776
1768872629074.89,1450.5494505494505,,0,-1,1768872629.07489
1768872629082.7026,1447.6190476190477,,0,-1,1768872629.0827026
1768872629090.5151,1394.8717948717947,,0,-1,1768872629.0905151
1768872629098.3276,1254.212454212454,,0,-1,1768872629.0983276
1768872629106.14,1048.3516483516482,,0,-1,1768872629.10614
1768872629113.9526,829.3040293040292,,0,-1,1768872629.1139526
1768872629121.7651,621.978021978022,,0,-1,1768872629.1217651
1768872629129.5776,460.07326007326,,0,-1,1768872629.1295776
1768872629137.39,343.5897435897436,,0,-1,1768872629.13739
1768872629145.2026,277.65567765567766,,0,-1,1768872629.1452026
1768872629153.0151,264.46886446886447,,0,-1,1768872629.1530151
1768872629160.8276,287.1794871794872,,0,-1,1768872629.1608276
1768872629168.64,342.1245421245421,,0,-1,1768872629.16864
1768872629176.4526,413.18681318681314,,0,-1,1768872629.1764526
1768872629184.2651,503.2967032967032,,0,-1,1768872629.1842651
1768872629192.0776,599.2673992673992,,0,-1,1768872629.1920776
1768872629199.89,694.5054945054944,,0,-1,1768872629.19989
1768872629207.7026,792.6739926739926,,0,-1,1768872629.2077026
1768872629215.5151,882.051282051282,,0,-1,1768872629.2155151
1768872629223.3276,966.3003663003662,,0,-1,1768872629.2233276
1768872629231.14,1037.362637362637,,0,-1,1768872629.23114
1768872629238.9526,1101.8315018315018,,0,-1,1768872629.2389526
1768872629246.7651,1159.7069597069597,,0,-1,1768872629.2467651
1768872629254.5776,1209.5238095238094,,0,-1,1768872629.2545776
1768872629262.39,1246.8864468864467,,0,-1,1768872629.26239
1768872629270.2026,1276.923076923077,,0,-1,1768872629.2702026
1768872629278.0151,1290.8424908424909,,0,-1,1768872629.2780151
1768872629285.8276,1297.4358974358977,,0,-1,1768872629.2858276
1768872629293.64,1305.4945054945051,,0,-1,1768872629.29364
1768872629301.4526,1306.227106227106,,0,-1,1768872629.3014526
1768872629309.2651,1309.89010989011,,0,-1,1768872629.3092651
1768872629317.0776,1306.9597069597069,,0,-1,1768872629.3170776
1768872629324.89,1308.4249084249084,,0,-1,1768872629.32489
1768872629332.7026,1306.9597069597069,,0,-1,1768872629.3327026
1768872629340.5151,1301.8315018315018,,0,-1,1768872629.3405151
1768872629348.3276,1299.6336996336995,,0,-1,1768872629.3483276
1768872629356.14,1297.4358974358977,,0,-1,1768872629.35614
1768872629363.9526,1301.8315018315018,,0,-1,1768872629.3639526
1768872629371.7651,1300.3663003663005,,0,-1,1768872629.3717651
1768872629379.5776,1301.098901098901,,0,-1,1768872629.3795776
1768872629387.39,1294.5054945054944,,0,-1,1768872629.38739
1768872629395.2026,1292.3076923076922,,0,-1,1768872629.3952026
1768872629403.0151,1285.7142857142856,,0,-1,1768872629.4030151
1768872629410.8276,1283.5164835164835,,0,-1,1768872629.4108276
1768872629418.64,1278.3882783882782,,0,-1,1768872629.41864
1768872629426.4526,1279.120879120879,,0,-1,1768872629.4264526
1768872629434.2651,1275.4578754578754,,0,-1,1768872629.4342651
1768872629442.0776,1279.8534798534797,,0,-1,1768872629.4420776
1768872629449.89,1280.5860805860805,,0,-1,1768872629.44989
1768872629457.7026,1287.179487179487,,0,-1,1768872629.4577026
1768872629465.5151,1287.179487179487,,0,-1,1768872629.4655151
1768872629473.3276,1286.4468864468863,,0,-1,1768872629.4733276
1768872629481.14,1281.3186813186812,,0,-1,1768872629.48114
1768872629488.9526,1276.190476190476,,0,-1,1768872629.4889526
1768872629496.7651,1271.062271062271,,0,-1,1768872629.4967651
1768872629504.5776,1263.003663003663,,0,-1,1768872629.5045776
1768872629512.39,1263.7362637362637,,0,-1,1768872629.51239
1768872629520.2026,1263.7362637362637,,0,-1,1768872629.5202026
1768872629528.0151,1269.5970695970695,,0,-1,1768872629.5280151
1768872629535.8276,1284.9816849816848,,0,-1,1768872629.5358276
1768872629543.64,1296.7032967032967,,0,-1,1768872629.54364
1768872629551.4526,1312.087912087912,,0,-1,1768872629.5514526
1768872629559.2651,1328.937728937729,,0,-1,1768872629.5592651
1768872629567.0776,1342.857142857143,,0,-1,1768872629.5670776
1768872629574.89,1358.974358974359,,0,-1,1768872629.57489
1768872629582.7026,1366.3003663003662,,0,-1,1768872629.5827026
1768872629590.5151,1372.8937728937728,,0,-1,1768872629.5905151
1768872629598.3276,1377.2893772893772,,0,-1,1768872629.5983276
1768872629606.14,1377.2893772893772,,0,-1,1768872629.60614
1768872629613.9526,1383.150183150183,,0,-1,1768872629.6139526
1768872629621.7651,1386.8131868131868,,0,-1,1768872629.6217651
1768872629629.5776,1390.4761904761904,,0,-1,1768872629.6295776
1768872629637.39,1389.7435897435896,,0,-1,1768872629.63739
1768872629645.2026,1386.080586080586,,0,-1,1768872629.6452026
1768872629653.0151,1378.021978021978,,0,-1,1768872629.6530151
1768872629660.8276,1372.161172161172,,0,-1,1768872629.6608276
1768872629668.64,1363.3699633699632,,0,-1,1768872629.66864
1768872629676.4526,1360.4395604395604,,0,-1,1768872629.6764526
1768872629684.2651,1360.4395604395604,,0,-1,1768872629.6842651
1768872629692.0776,1358.241758241758,,0,-1,1768872629.6920776
1768872629699.89,1361.1721611721612,,0,-1,1768872629.69989
1768872629707.7026,1364.102564102564,,0,-1,1768872629.7077026
1768872629715.5151,1364.102564102564,,0,-1,1768872629.7155151
1768872629723.3276,1365.5677655677655,,0,-1,1768872629.7233276
1768872629731.14,1361.904761904762,,0,-1,1768872629.73114
1768872629738.9526,1356.043956043956,,0,-1,1768872629.7389526
1768872629746.7651,1352.3809523809523,,0,-1,1768872629.7467651
1768872629754.5776,1343.5897435897434,,0,-1,1768872629.7545776
1768872629762.39,1338.4615384615383,,0,-1,1768872629.76239
1768872629770.2026,1331.135531135531,,0,-1,1768872629.7702026
1768872629778.0151,1321.6117216117216,,0,-1,1768872629.7780151
1768872629785.8276,1316.4835164835165,,0,-1,1768872629.7858276
1768872629793.64,1315.018315018315,,0,-1,1768872629.79364
1768872629801.4526,1313.5531135531137,,0,-1,1768872629.8014526
1768872629809.2651,1312.087912087912,,0,-1,1768872629.8092651
1768872629817.0776,1312.087912087912,,1,6,1768872629.8170776
1768872629824.89,1314.2857142857142,,1,6,1768872629.82489
1768872629832.7026,1312.087912087912,,1,6,1768872629.8327026
1768872629840.5151,1304.7619047619046,,1,6,1768872629.8405151
1768872629848.3276,1296.7032967032967,,1,6,1768872629.8483276
1768872629856.14,1292.3076923076922,,1,6,1768872629.85614
1768872629863.9526,1286.4468864468863,,1,6,1768872629.8639526
1768872629871.7651,1286.4468864468863,,1,6,1768872629.8717651
1768872629879.5776,1287.9120879120878,,1,6,1768872629.8795776
1768872629887.39,1287.9120879120878,,1,6,1768872629.88739
1768872629895.2026,1291.5750915750914,,1,6,1768872629.8952026
1768872629903.0151,1294.5054945054944,,1,6,1768872629.9030151
1768872629910.8276,1293.040293040293,,1,6,1768872629.9108276
1768872629918.64,1293.7728937728937,,1,6,1768872629.91864
1768872629926.4526,1295.2380952380952,,1,6,1768872629.9264526
1768872629934.2651,1292.3076923076922,,1,6,1768872629.9342651
1768872629942.0776,1290.8424908424909,,1,6,1768872629.9420776
1768872629949.89,1290.8424908424909,,1,6,1768872629.94989
1768872629957.7026,1284.9816849816848,,1,6,1768872629.9577026
1768872629965.5151,1276.923076923077,,1,6,1768872629.9655151
1768872629973.3276,1272.5274725274724,,1,6,1768872629.9733276
1768872629981.14,1271.7948717948716,,1,6,1768872629.98114
1768872629988.9526,1270.3296703296703,,1,6,1768872629.9889526
1768872629996.7651,1269.5970695970695,,1,6,1768872629.9967651
1768872630004.5776,1269.5970695970695,,1,6,1768872630.0045776
1768872630012.39,1271.062271062271,,1,6,1768872630.01239
1768872630020.2026,1274.7252747252746,,1,6,1768872630.0202026
1768872630028.0151,1272.5274725274724,,1,6,1768872630.0280151
1768872630035.8276,1266.6666666666663,,1,6,1768872630.0358276
1768872630043.64,1259.3406593406592,,1,6,1768872630.04364
1768872630051.4526,1253.479853479853,,1,6,1768872630.0514526
1768872630059.2651,1251.2820512820513,,1,6,1768872630.0592651
1768872630067.0776,1249.8168498168498,,1,6,1768872630.0670776
1768872630074.89,1246.8864468864467,,1,6,1768872630.07489
1768872630082.7026,1243.956043956044,,1,6,1768872630.0827026
1768872630090.5151,1242.4908424908424,,1,6,1768872630.0905151
1768872630098.3276,1243.2234432234432,,1,6,1768872630.0983276
1768872630106.14,1245.4212454212454,,1,6,1768872630.10614
1768872630113.9526,1246.8864468864467,,1,6,1768872630.1139526
1768872630121.7651,1247.6190476190477,,1,6,1768872630.1217651
1768872630129.5776,1251.2820512820513,,1,6,1768872630.1295776
1768872630137.39,1257.875457875458,,1,6,1768872630.13739
1768872630145.2026,1265.9340659340658,,1,6,1768872630.1452026
1768872630153.0151,1272.5274725274724,,1,6,1768872630.1530151
1768872630160.8276,1276.923076923077,,1,6,1768872630.1608276
1768872630168.64,1281.3186813186812,,1,6,1768872630.16864
1768872630176.4526,1289.3772893772891,,1,6,1768872630.1764526
1768872630184.2651,1298.9010989010987,,1,6,1768872630.1842651
1768872630192.0776,1309.89010989011,,1,6,1768872630.1920776
1768872630199.89,1320.8791208791208,,1,6,1768872630.19989
1768872630207.7026,1327.4725274725274,,1,6,1768872630.2077026
1768872630215.5151,1331.8681318681315,,1,6,1768872630.2155151
1768872630223.3276,1339.194139194139,,1,6,1768872630.2233276
1768872630231.14,1346.5201465201465,,1,6,1768872630.23114
1768872630238.9526,1353.8461538461538,,1,6,1768872630.2389526
1768872630246.7651,1356.043956043956,,1,6,1768872630.2467651
1768872630254.5776,1356.043956043956,,1,6,1768872630.2545776
1768872630262.39,1353.8461538461538,,1,6,1768872630.26239
1768872630270.2026,1351.6483516483515,,1,6,1768872630.2702026
1768872630278.0151,1347.985347985348,,1,6,1768872630.2780151
1768872630285.8276,1344.3223443223442,,1,6,1768872630.2858276
1768872630293.64,1341.3919413919414,,1,6,1768872630.29364
1768872630301.4526,1339.194139194139,,1,6,1768872630.3014526
1768872630309.2651,1336.263736263736,,1,6,1768872630.3092651
1768872630317.0776,1331.8681318681315,,1,6,1768872630.3170776
1768872630324.89,1329.6703296703297,,1,6,1768872630.32489
1768872630332.7026,1327.4725274725274,,1,6,1768872630.3327026
1768872630340.5151,1323.076923076923,,1,6,1768872630.3405151
1768872630348.3276,1318.6813186813183,,1,6,1768872630.3483276
1768872630356.14,1316.4835164835165,,1,6,1768872630.35614
1768872630363.9526,1315.7509157509155,,1,6,1768872630.3639526
1768872630371.7651,1312.8205128205127,,1,6,1768872630.3717651
1768872630379.5776,1309.1575091575091,,1,6,1768872630.3795776
1768872630387.39,1302.5641025641023,,1,6,1768872630.38739
1768872630395.2026,1296.7032967032967,,1,6,1768872630.3952026
1768872630403.0151,1295.2380952380952,,1,6,1768872630.4030151
1768872630410.8276,1296.7032967032967,,1,6,1768872630.4108276
1768872630418.64,1296.7032967032967,,1,6,1768872630.41864
1768872630426.4526,1299.6336996336995,,1,6,1768872630.4264526
1768872630434.2651,1301.8315018315018,,1,6,1768872630.4342651
1768872630442.0776,1300.3663003663005,,1,6,1768872630.4420776
1768872630449.89,1298.168498168498,,1,6,1768872630.44989
1768872630457.7026,1291.5750915750914,,1,6,1768872630.4577026
1768872630465.5151,1282.051282051282,,1,6,1768872630.4655151
1768872630473.3276,1274.7252747252746,,1,6,1768872630.4733276
1768872630481.14,1269.5970695970695,,1,6,1768872630.48114
1768872630488.9526,1265.2014652014652,,1,6,1768872630.4889526
1768872630496.7651,1266.6666666666663,,1,6,1768872630.4967651
1768872630504.5776,1270.3296703296703,,1,6,1768872630.5045776
1768872630512.39,1276.190476190476,,1,6,1768872630.51239
1768872630520.2026,1279.8534798534797,,1,6,1768872630.5202026
1768872630528.0151,1276.923076923077,,1,6,1768872630.5280151
1768872630535.8276,1271.7948717948716,,1,6,1768872630.5358276
1768872630543.64,1263.7362637362637,,1,6,1768872630.54364
1768872630551.4526,1255.6776556776556,,1,6,1768872630.5514526
1768872630559.2651,1249.084249084249,,1,6,1768872630.5592651
1768872630567.0776,1247.6190476190477,,1,6,1768872630.5670776
1768872630574.89,1246.8864468864467,,1,6,1768872630.57489
1768872630582.7026,1247.6190476190477,,1,6,1768872630.5827026
1768872630590.5151,1248.3516483516482,,1,6,1768872630.5905151
1768872630598.3276,1249.084249084249,,1,6,1768872630.5983276
1768872630606.14,1250.5494505494505,,1,6,1768872630.60614
1768872630613.9526,1252.014652014652,,1,6,1768872630.6139526
1768872630621.7651,1254.212454212454,,1,6,1768872630.6217651
1768872630629.5776,1257.875457875458,,1,6,1768872630.6295776
1768872630637.39,1260.805860805861,,1,6,1768872630.63739
1768872630645.2026,1262.2710622710622,,1,6,1768872630.6452026
1768872630653.0151,1263.003663003663,,1,6,1768872630.6530151
1768872630660.8276,1266.6666666666663,,1,6,1768872630.6608276
1768872630668.64,1268.8644688644688,,1,6,1768872630.66864
1768872630676.4526,1268.131868131868,,1,6,1768872630.6764526
1768872630684.2651,1266.6666666666663,,1,6,1768872630.6842651
1768872630692.0776,1263.7362637362637,,1,6,1768872630.6920776
1768872630699.89,1260.805860805861,,1,6,1768872630.69989
1768872630707.7026,1258.6080586080586,,1,6,1768872630.7077026
1768872630715.5151,1258.6080586080586,,1,6,1768872630.7155151
1768872630723.3276,1261.5384615384614,,1,6,1768872630.7233276
1768872630731.14,1268.131868131868,,1,6,1768872630.73114
1768872630738.9526,1276.190476190476,,1,6,1768872630.7389526
1768872630746.7651,1286.4468864468863,,1,6,1768872630.7467651
1768872630754.5776,1300.3663003663005,,1,6,1768872630.7545776
1768872630762.39,1312.087912087912,,1,6,1768872630.76239
1768872630770.2026,1317.9487179487178,,1,6,1768872630.7702026
1768872630778.0151,1323.8095238095236,,1,6,1768872630.7780151
1768872630785.8276,1328.2051282051282,,1,6,1768872630.7858276
1768872630793.64,1331.135531135531,,1,6,1768872630.79364
1768872630801.4526,1331.8681318681315,,1,6,1768872630.8014526
1768872630809.2651,1330.4029304029302,,1,6,1768872630.8092651
1768872630817.0776,1327.4725274725274,,1,6,1768872630.8170776
1768872630824.89,1324.5421245421244,,1,6,1768872630.82489
1768872630832.7026,1320.14652014652,,1,6,1768872630.8327026
1768872630840.5151,1317.9487179487178,,1,6,1768872630.8405151
1768872630848.3276,1318.6813186813183,,1,6,1768872630.8483276
1768872630856.14,1322.3443223443223,,1,6,1768872630.85614
1768872630863.9526,1325.2747252747251,,1,6,1768872630.8639526
1768872630871.7651,1328.2051282051282,,1,6,1768872630.8717651
1768872630879.5776,1329.6703296703297,,1,6,1768872630.8795776
1768872630887.39,1331.8681318681315,,1,6,1768872630.88739
1768872630895.2026,1332.6007326007325,,1,6,1768872630.8952026
1768872630903.0151,1326.739926739927,,1,6,1768872630.9030151
1768872630910.8276,1317.216117216117,,1,6,1768872630.9108276
1768872630918.64,1307.6923076923076,,1,6,1768872630.91864
1768872630926.4526,1298.9010989010987,,1,6,1768872630.9264526
1768872630934.2651,1298.9010989010987,,1,6,1768872630.9342651
1768872630942.0776,1298.168498168498,,1,6,1768872630.9420776
1768872630949.89,1298.168498168498,,1,6,1768872630.94989
1768872630957.7026,1301.098901098901,,1,6,1768872630.9577026
1768872630965.5151,1300.3663003663005,,1,6,1768872630.9655151
1768872630973.3276,1298.168498168498,,1,6,1768872630.9733276
1768872630981.14,1295.970695970696,,1,6,1768872630.98114
1768872630988.9526,1295.2380952380952,,1,6,1768872630.9889526
1768872630996.7651,1301.098901098901,,1,6,1768872630.9967651
1768872631004.5776,1304.7619047619046,,1,6,1768872631.0045776
1768872631012.39,1304.7619047619046,,1,6,1768872631.01239
1768872631020.2026,1304.0293040293038,,0,-1,1768872631.0202026
1768872631028.0151,1304.0293040293038,,0,-1,1768872631.0280151
1768872631035.8276,1298.9010989010987,,0,-1,1768872631.0358276
1768872631043.64,1291.5750915750914,,0,-1,1768872631.04364
1768872631051.4526,1284.9816849816848,,0,-1,1768872631.0514526
1768872631059.2957,1279.8534798534797,,0,-1,1768872631.0592957
1768872631067.0776,1277.6556776556777,,0,-1,1768872631.0670776
1768872631074.89,1277.6556776556777,,0,-1,1768872631.07489
1768872631082.7026,1283.5164835164835,,0,-1,1768872631.0827026
1768872631090.5151,1284.9816849816848,,0,-1,1768872631.0905151
1768872631098.3276,1289.3772893772891,,0,-1,1768872631.0983276
1768872631106.14,1289.3772893772891,,0,-1,1768872631.10614
1768872631113.9526,1293.7728937728937,,0,-1,1768872631.1139526
1768872631121.7651,1293.7728937728937,,0,-1,1768872631.1217651
1768872631129.5776,1296.7032967032967,,0,-1,1768872631.1295776
1768872631137.39,1296.7032967032967,,0,-1,1768872631.13739
1768872631145.2026,1299.6336996336995,,0,-1,1768872631.1452026
1768872631153.0151,1302.5641025641023,,0,-1,1768872631.1530151
1768872631160.8276,1304.0293040293038,,0,-1,1768872631.1608276
1768872631168.64,1305.4945054945051,,0,-1,1768872631.16864
1768872631176.4526,1304.0293040293038,,0,-1,1768872631.1764526
1768872631184.2651,1298.168498168498,,0,-1,1768872631.1842651
1768872631192.0776,1295.2380952380952,,0,-1,1768872631.1920776
1768872631199.89,1290.8424908424909,,0,-1,1768872631.19989
1768872631207.7026,1290.8424908424909,,0,-1,1768872631.2077026
1768872631215.5151,1287.9120879120878,,0,-1,1768872631.2155151
1768872631223.3276,1283.5164835164835,,0,-1,1768872631.2233276
1768872631231.14,1283.5164835164835,,0,-1,1768872631.23114
1768872631238.9526,1282.051282051282,,0,-1,1768872631.2389526
1768872631246.7651,1281.3186813186812,,0,-1,1768872631.2467651
1768872631254.5776,1283.5164835164835,,0,-1,1768872631.2545776
1768872631262.39,1282.051282051282,,0,-1,1768872631.26239
1768872631270.2026,1281.3186813186812,,0,-1,1768872631.2702026
1768872631278.0151,1274.7252747252746,,0,-1,1768872631.2780151
1768872631285.8276,1268.8644688644688,,0,-1,1768872631.2858276
1768872631293.64,1257.875457875458,,0,-1,1768872631.29364
1768872631301.4526,1251.2820512820513,,0,-1,1768872631.3014526
1768872631309.2651,1242.4908424908424,,0,-1,1768872631.3092651
1768872631317.0776,1241.7582417582416,,0,-1,1768872631.3170776
1768872631324.89,1240.29304029304,,0,-1,1768872631.32489
1768872631332.7026,1246.8864468864467,,0,-1,1768872631.3327026
1768872631340.5151,1251.2820512820513,,0,-1,1768872631.3405151
1768872631348.3276,1257.875457875458,,0,-1,1768872631.3483276
1768872631356.14,1263.7362637362637,,0,-1,1768872631.35614
1768872631363.9526,1270.3296703296703,,0,-1,1768872631.3639526
1768872631371.7651,1283.5164835164835,,0,-1,1768872631.3717651
1768872631379.5776,1295.2380952380952,,0,-1,1768872631.3795776
1768872631387.39,1306.227106227106,,0,-1,1768872631.38739
1768872631395.2026,1319.4139194139193,,0,-1,1768872631.3952026
1768872631403.0151,1332.6007326007325,,0,-1,1768872631.4030151
1768872631410.8276,1347.2527472527472,,0,-1,1768872631.4108276
1768872631418.64,1358.974358974359,,0,-1,1768872631.41864
1768872631426.4526,1367.7655677655678,,0,-1,1768872631.4264526
1768872631434.2651,1373.6263736263736,,0,-1,1768872631.4342651
1768872631442.0776,1374.3589743589744,,0,-1,1768872631.4420776
1768872631449.89,1375.8241758241757,,0,-1,1768872631.44989
1768872631457.7026,1381.6849816849815,,0,-1,1768872631.4577026
1768872631465.5151,1381.6849816849815,,0,-1,1768872631.4655151
1768872631473.3276,1385.3479853479853,,0,-1,1768872631.4733276
1768872631481.14,1386.080586080586,,0,-1,1768872631.48114
1768872631488.9526,1379.4871794871794,,0,-1,1768872631.4889526
1768872631496.7651,1374.3589743589744,,0,-1,1768872631.4967651
1768872631504.5776,1366.3003663003662,,0,-1,1768872631.5045776
1768872631512.39,1358.974358974359,,0,-1,1768872631.51239
1768872631520.2026,1349.4505494505493,,0,-1,1768872631.5202026
1768872631528.0151,1344.3223443223442,,0,-1,1768872631.5280151
1768872631535.8276,1334.7985347985348,,0,-1,1768872631.5358276
1768872631543.64,1326.739926739927,,0,-1,1768872631.54364
1768872631551.4526,1317.9487179487178,,0,-1,1768872631.5514526
1768872631559.2651,1311.3553113553112,,0,-1,1768872631.5592651
1768872631567.0776,1303.2967032967033,,0,-1,1768872631.5670776
1768872631574.89,1295.970695970696,,0,-1,1768872631.57489
1768872631582.7026,1293.7728937728937,,0,-1,1768872631.5827026
1768872631590.5151,1290.8424908424909,,0,-1,1768872631.5905151
1768872631598.3276,1295.970695970696,,0,-1,1768872631.5983276
1768872631606.14,1305.4945054945051,,0,-1,1768872631.60614
1768872631613.9526,1315.018315018315,,0,-1,1768872631.6139526
1768872631621.7651,1323.8095238095236,,0,-1,1768872631.6217651
1768872631629.5776,1331.8681318681315,,0,-1,1768872631.6295776
1768872631637.39,1332.6007326007325,,0,-1,1768872631.63739
1768872631645.2026,1331.135531135531,,0,-1,1768872631.6452026
1768872631653.0151,1329.6703296703297,,0,-1,1768872631.6530151
1768872631660.8276,1326.739926739927,,0,-1,1768872631.6608276
1768872631668.64,1326.007326007326,,0,-1,1768872631.66864
1768872631676.4526,1327.4725274725274,,0,-1,1768872631.6764526
1768872631684.2651,1323.8095238095236,,0,-1,1768872631.6842651
1768872631692.0776,1320.14652014652,,0,-1,1768872631.6920776
1768872631699.89,1317.9487179487178,,0,-1,1768872631.69989
1768872631707.7026,1317.216117216117,,0,-1,1768872631.7077026
1768872631715.5151,1319.4139194139193,,0,-1,1768872631.7155151
1768872631723.3276,1322.3443223443223,,0,-1,1768872631.7233276
1768872631731.14,1320.8791208791208,,0,-1,1768872631.73114
