Shimmer_6815_Timestamp_Unix_CAL,Shimmer_6815_PPG_A13_CAL,Unnamed: 2,inhale,inhale_id,epoch_sec
1768775308201.538,64.46886446886447,,0,-1,1768775308.201538
1768775308209.3506,164.83516483516482,,0,-1,1768775308.2093506
1768775308217.163,287.1794871794872,,0,-1,1768775308.217163
1768775308224.9756,414.6520146520146,,0,-1,1768775308.2249756
1768775308232.788,535.5311355311355,,0,-1,1768775308.232788
1768775308240.6006,652.0146520146519,,0,-1,1768775308.2406006
1768775308248.413,755.3113553113552,,0,-1,1768775308.248413
1768775308256.2256,848.3516483516484,,0,-1,1768775308.2562256
1768775308264.038,928.9377289377288,,0,-1,1768775308.264038
1768775308271.8506,999.2673992673992,,0,-1,1768775308.2718506
1768775308279.663,1063.7362637362637,,0,-1,1768775308.279663
1768775308287.4756,1115.7509157509155,,0,-1,1768775308.2874756
1768775308295.288,1153.113553113553,,0,-1,1768775308.295288
1768775308303.1006,1180.952380952381,,0,-1,1768775308.3031006
1768775308310.913,1202.197802197802,,0,-1,1768775308.310913
1768775308318.7256,1216.8498168498168,,0,-1,1768775308.3187256
1768775308326.538,1224.9084249084249,,0,-1,1768775308.326538
1768775308334.3506,1232.2344322344322,,0,-1,1768775308.3343506
1768775308342.163,1237.362637362637,,0,-1,1768775308.342163
1768775308349.9756,1238.8278388278388,,0,-1,1768775308.3499756
1768775308357.788,1238.095238095238,,0,-1,1768775308.357788
1768775308365.6006,1241.0256410256409,,0,-1,1768775308.3656006
1768775308373.413,1240.29304029304,,0,-1,1768775308.373413
1768775308381.2256,1238.095238095238,,0,-1,1768775308.3812256
1768775308389.038,1237.362637362637,,0,-1,1768775308.389038
1768775308396.8506,1237.362637362637,,0,-1,1768775308.3968506
1768775308404.663,1235.8974358974358,,0,-1,1768775308.404663
1768775308412.4756,1235.164835164835,,0,-1,1768775308.4124756
1768775308420.288,1233.6996336996335,,0,-1,1768775308.420288
1768775308428.1006,1226.3736263736264,,0,-1,1768775308.4281006
1768775308435.913,1219.7802197802198,,0,-1,1768775308.435913
1768775308443.7256,1214.6520146520145,,0,-1,1768775308.4437256
1768775308451.538,1205.128205128205,,0,-1,1768775308.451538
1768775308459.3506,1200.0,,0,-1,1768775308.4593506
1768775308467.163,1195.6043956043954,,0,-1,1768775308.467163
1768775308474.9756,1189.0109890109889,,0,-1,1768775308.4749756
1768775308482.788,1187.5457875457876,,0,-1,1768775308.482788
1768775308490.6006,1189.7435897435896,,0,-1,1768775308.4906006
1768775308498.413,1194.1391941391942,,0,-1,1768775308.498413
1768775308506.2256,1202.197802197802,,0,-1,1768775308.5062256
1768775308514.038,1210.2564102564102,,0,-1,1768775308.514038
1768775308521.8506,1213.9194139194135,,0,-1,1768775308.5218506
1768775308529.663,1219.7802197802198,,0,-1,1768775308.529663
1768775308537.4756,1224.9084249084249,,0,-1,1768775308.5374756
1768775308545.288,1223.4432234432234,,0,-1,1768775308.545288
1768775308553.1006,1223.4432234432234,,0,-1,1768775308.5531006
1768775308560.913,1221.245421245421,,0,-1,1768775308.560913
1768775308568.7256,1213.1868131868132,,0,-1,1768775308.5687256
1768775308576.538,1205.8608058608058,,0,-1,1768775308.576538
1768775308584.3506,1204.3956043956043,,0,-1,1768775308.5843506
1768775308592.163,1201.4652014652013,,0,-1,1768775308.592163
1768775308599.9756,1201.4652014652013,,0,-1,1768775308.5999756
1768775308607.788,1204.3956043956043,,0,-1,1768775308.607788
1768775308615.6006,1202.197802197802,,0,-1,1768775308.6156006
1768775308623.413,1200.7326007326008,,0,-1,1768775308.623413
1768775308631.2256,1199.2673992673992,,0,-1,1768775308.6312256
1768775308639.038,1195.6043956043954,,0,-1,1768775308.639038
1768775308646.8506,1192.6739926739926,,0,-1,1768775308.6468506
1768775308654.663,1188.278388278388,,0,-1,1768775308.654663
1768775308662.4756,1183.150183150183,,0,-1,1768775308.6624756
1768775308670.288,1181.6849816849815,,0,-1,1768775308.670288
1768775308678.1006,1180.2197802197802,,0,-1,1768775308.6781006
1768775308685.913,1182.4175824175825,,0,-1,1768775308.685913
1768775308693.7256,1183.150183150183,,0,-1,1768775308.6937256
1768775308701.538,1182.4175824175825,,0,-1,1768775308.701538
1768775308709.3506,1183.150183150183,,0,-1,1768775308.7093506
1768775308717.163,1186.8131868131868,,0,-1,1768775308.717163
1768775308724.9756,1192.6739926739926,,0,-1,1768775308.7249756
1768775308732.788,1197.069597069597,,0,-1,1768775308.732788
1768775308740.6006,1197.069597069597,,0,-1,1768775308.7406006
1768775308748.413,1194.1391941391942,,0,-1,1768775308.748413
1768775308756.2256,1193.4065934065934,,0,-1,1768775308.7562256
1768775308764.038,1192.6739926739926,,0,-1,1768775308.764038
1768775308771.8506,1191.2087912087911,,0,-1,1768775308.7718506
1768775308779.663,1187.5457875457876,,0,-1,1768775308.779663
1768775308787.4756,1186.080586080586,,0,-1,1768775308.7874756
1768775308795.288,1188.278388278388,,0,-1,1768775308.795288
1768775308803.1006,1193.4065934065934,,0,-1,1768775308.8031006
1768775308810.913,1202.197802197802,,0,-1,1768775308.810913
1768775308818.7256,1209.5238095238094,,0,-1,1768775308.8187256
1768775308826.538,1213.1868131868132,,0,-1,1768775308.826538
1768775308834.3506,1219.7802197802198,,0,-1,1768775308.8343506
1768775308842.163,1227.8388278388277,,0,-1,1768775308.842163
1768775308849.9756,1230.7692307692307,,0,-1,1768775308.8499756
1768775308857.788,1228.5714285714284,,0,-1,1768775308.857788
1768775308865.6006,1225.6410256410256,,0,-1,1768775308.8656006
1768775308873.413,1222.7106227106226,,0,-1,1768775308.873413
1768775308881.2256,1221.245421245421,,0,-1,1768775308.8812256
1768775308889.038,1223.4432234432234,,0,-1,1768775308.889038
1768775308896.8506,1226.3736263736264,,0,-1,1768775308.8968506
1768775308904.663,1230.03663003663,,0,-1,1768775308.904663
1768775308912.4756,1230.7692307692307,,0,-1,1768775308.9124756
1768775308920.288,1229.3040293040292,,0,-1,1768775308.920288
1768775308928.1006,1224.175824175824,,0,-1,1768775308.9281006
1768775308935.913,1223.4432234432234,,0,-1,1768775308.935913
1768775308943.7256,1222.7106227106226,,0,-1,1768775308.9437256
1768775308951.538,1221.9780219780218,,0,-1,1768775308.951538
1768775308959.3506,1221.245421245421,,0,-1,1768775308.9593506
1768775308967.163,1216.117216117216,,0,-1,1768775308.967163
1768775308974.9756,1208.058608058608,,0,-1,1768775308.9749756
1768775308982.788,1197.8021978021975,,0,-1,1768775308.982788
1768775308990.6006,1187.5457875457876,,0,-1,1768775308.9906006
1768775308998.413,1183.150183150183,,0,-1,1768775308.998413
1768775309006.2256,1185.3479853479853,,0,-1,1768775309.0062256
1768775309014.038,1191.941391941392,,0,-1,1768775309.014038
1768775309021.8506,1198.5347985347985,,0,-1,1768775309.0218506
1768775309029.663,1204.3956043956043,,0,-1,1768775309.029663
1768775309037.4756,1211.7216117216117,,0,-1,1768775309.0374756
1768775309045.288,1218.3150183150185,,0,-1,1768775309.045288
1768775309053.1006,1221.245421245421,,0,-1,1768775309.0531006
1768775309060.913,1225.6410256410256,,0,-1,1768775309.060913
1768775309068.7256,1230.7692307692307,,0,-1,1768775309.0687256
1768775309076.538,1235.164835164835,,0,-1,1768775309.076538
1768775309084.3506,1238.095238095238,,0,-1,1768775309.0843506
1768775309092.163,1240.29304029304,,0,-1,1768775309.092163
1768775309099.9756,1244.688644688645,,0,-1,1768775309.0999756
1768775309107.788,1250.5494505494505,,0,-1,1768775309.107788
1768775309115.6006,1260.07326007326,,0,-1,1768775309.1156006
1768775309123.413,1273.260073260073,,0,-1,1768775309.123413
1768775309131.2256,1282.051282051282,,0,-1,1768775309.1312256
1768775309139.038,1287.9120879120878,,0,-1,1768775309.139038
1768775309146.8506,1294.5054945054944,,0,-1,1768775309.1468506
1768775309154.663,1301.8315018315018,,0,-1,1768775309.154663
1768775309162.4756,1309.1575091575091,,0,-1,1768775309.1624756
1768775309170.288,1317.9487179487178,,0,-1,1768775309.170288
1768775309178.1006,1328.2051282051282,,0,-1,1768775309.1781006
1768775309185.913,1333.3333333333333,,0,-1,1768775309.185913
1768775309193.7256,1339.194139194139,,0,-1,1768775309.1937256
1768775309201.538,1343.5897435897434,,0,-1,1768775309.201538
1768775309209.3506,1347.985347985348,,0,-1,1768775309.2093506
1768775309217.163,1350.18315018315,,0,-1,1768775309.217163
1768775309224.9756,1351.6483516483515,,0,-1,1768775309.2249756
1768775309232.788,1353.8461538461538,,0,-1,1768775309.232788
1768775309240.6006,1355.311355311355,,0,-1,1768775309.2406006
1768775309248.413,1355.311355311355,,0,-1,1768775309.248413
1768775309256.2256,1353.113553113553,,0,-1,1768775309.2562256
1768775309264.038,1349.4505494505493,,0,-1,1768775309.264038
1768775309271.8506,1345.7875457875457,,0,-1,1768775309.2718506
1768775309279.663,1342.857142857143,,0,-1,1768775309.279663
1768775309287.4756,1338.4615384615383,,0,-1,1768775309.2874756
1768775309295.288,1334.065934065934,,0,-1,1768775309.295288
1768775309303.1006,1331.8681318681315,,0,-1,1768775309.3031006
1768775309310.913,1326.739926739927,,0,-1,1768775309.310913
1768775309318.7256,1322.3443223443223,,0,-1,1768775309.3187256
1768775309326.538,1317.216117216117,,0,-1,1768775309.326538
1768775309334.3506,1312.087912087912,,0,-1,1768775309.3343506
1768775309342.163,1310.6227106227104,,0,-1,1768775309.342163
1768775309349.9756,1309.89010989011,,0,-1,1768775309.3499756
1768775309357.788,1309.89010989011,,0,-1,1768775309.357788
1768775309365.6006,1310.6227106227104,,0,-1,1768775309.3656006
1768775309373.413,1311.3553113553112,,0,-1,1768775309.373413
1768775309381.2256,1312.8205128205127,,0,-1,1768775309.3812256
1768775309389.038,1314.2857142857142,,0,-1,1768775309.389038
1768775309396.8506,1316.4835164835165,,0,-1,1768775309.3968506
1768775309404.663,1319.4139194139193,,0,-1,1768775309.404663
1768775309412.4756,1319.4139194139193,,0,-1,1768775309.4124756
1768775309420.288,1320.8791208791208,,0,-1,1768775309.420288
1768775309428.1006,1323.8095238095236,,0,-1,1768775309.4281006
1768775309435.913,1327.4725274725274,,0,-1,1768775309.435913
1768775309443.7256,1330.4029304029302,,0,-1,1768775309.4437256
1768775309451.538,1334.7985347985348,,0,-1,1768775309.451538
1768775309459.3506,1337.7289377289376,,0,-1,1768775309.4593506
1768775309467.163,1341.3919413919414,,0,-1,1768775309.467163
1768775309474.9756,1346.5201465201465,,0,-1,1768775309.4749756
1768775309482.788,1348.7179487179487,,0,-1,1768775309.482788
1768775309490.6006,1349.4505494505493,,0,-1,1768775309.4906006
1768775309498.413,1346.5201465201465,,0,-1,1768775309.498413
1768775309506.2256,1344.3223443223442,,0,-1,1768775309.5062256
1768775309514.038,1339.92673992674,,0,-1,1768775309.514038
1768775309521.8506,1334.065934065934,,0,-1,1768775309.5218506
1768775309529.663,1329.6703296703297,,0,-1,1768775309.529663
1768775309537.4756,1326.739926739927,,0,-1,1768775309.5374756
1768775309545.288,1326.739926739927,,0,-1,1768775309.545288
1768775309553.1006,1328.2051282051282,,0,-1,1768775309.5531006
1768775309560.913,1325.2747252747251,,0,-1,1768775309.560913
1768775309568.7256,1319.4139194139193,,0,-1,1768775309.5687256
1768775309576.538,1314.2857142857142,,0,-1,1768775309.576538
1768775309584.3506,1306.9597069597069,,0,-1,1768775309.5843506
1768775309592.163,1301.8315018315018,,0,-1,1768775309.592163
1768775309599.9756,1296.7032967032967,,0,-1,1768775309.5999756
1768775309607.788,1289.3772893772891,,0,-1,1768775309.607788
1768775309615.6006,1278.3882783882782,,0,-1,1768775309.6156006
1768775309623.413,1265.9340659340658,,0,-1,1768775309.623413
1768775309631.2256,1254.9450549450548,,0,-1,1768775309.6312256
1768775309639.038,1249.8168498168498,,0,-1,1768775309.639038
1768775309646.8506,1249.8168498168498,,0,-1,1768775309.6468506
1768775309654.663,1253.479853479853,,0,-1,1768775309.654663
1768775309662.4756,1257.875457875458,,0,-1,1768775309.6624756
1768775309670.288,1260.07326007326,,0,-1,1768775309.670288
1768775309678.1006,1265.2014652014652,,0,-1,1768775309.6781006
1768775309685.913,1271.7948717948716,,0,-1,1768775309.685913
1768775309693.7256,1277.6556776556777,,0,-1,1768775309.6937256
1768775309701.538,1282.051282051282,,0,-1,1768775309.701538
1768775309709.3506,1283.5164835164835,,0,-1,1768775309.7093506
1768775309717.163,1285.7142857142856,,0,-1,1768775309.717163
1768775309724.9756,1291.5750915750914,,0,-1,1768775309.7249756
1768775309732.788,1298.9010989010987,,0,-1,1768775309.732788
1768775309740.6006,1304.0293040293038,,0,-1,1768775309.7406006
1768775309748.413,1310.6227106227104,,0,-1,1768775309.748413
1768775309756.2256,1315.7509157509155,,0,-1,1768775309.7562256
1768775309764.038,1314.2857142857142,,0,-1,1768775309.764038
1768775309771.8506,1307.6923076923076,,0,-1,1768775309.7718506
1768775309779.663,1299.6336996336995,,0,-1,1768775309.779663
1768775309787.4756,1294.5054945054944,,0,-1,1768775309.7874756
1768775309795.288,1288.6446886446886,,0,-1,1768775309.795288
1768775309803.1006,1282.7838827838827,,0,-1,1768775309.8031006
1768775309810.913,1276.923076923077,,0,-1,1768775309.810913
1768775309818.7256,1268.131868131868,,0,-1,1768775309.8187256
1768775309826.538,1257.142857142857,,0,-1,1768775309.826538
1768775309834.3506,1249.084249084249,,0,-1,1768775309.8343506
1768775309842.163,1246.8864468864467,,0,-1,1768775309.842163
1768775309849.9756,1250.5494505494505,,0,-1,1768775309.8499756
1768775309857.788,1256.4102564102564,,0,-1,1768775309.857788
1768775309865.6006,1263.003663003663,,0,-1,1768775309.8656006
1768775309873.413,1268.131868131868,,0,-1,1768775309.873413
1768775309881.2256,1270.3296703296703,,0,-1,1768775309.8812256
1768775309889.038,1271.062271062271,,0,-1,1768775309.889038
1768775309896.8506,1270.3296703296703,,0,-1,1768775309.8968506
1768775309904.663,1269.5970695970695,,0,-1,1768775309.904663
1768775309912.4756,1269.5970695970695,,0,-1,1768775309.9124756
1768775309920.288,1271.7948717948716,,0,-1,1768775309.920288
1768775309928.1006,1273.260073260073,,0,-1,1768775309.9281006
1768775309935.913,1275.4578754578754,,0,-1,1768775309.935913
1768775309943.7256,1276.923076923077,,0,-1,1768775309.9437256
1768775309951.538,1270.3296703296703,,0,-1,1768775309.951538
1768775309959.3506,1263.003663003663,,0,-1,1768775309.9593506
1768775309967.163,1261.5384615384614,,0,-1,1768775309.967163
1768775309974.9756,1260.805860805861,,0,-1,1768775309.9749756
1768775309982.788,1264.4688644688645,,0,-1,1768775309.982788
1768775309990.6006,1268.8644688644688,,0,-1,1768775309.9906006
1768775309998.413,1273.992673992674,,0,-1,1768775309.998413
1768775310006.2256,1275.4578754578754,,0,-1,1768775310.0062256
1768775310014.038,1279.120879120879,,0,-1,1768775310.014038
1768775310021.8506,1283.5164835164835,,0,-1,1768775310.0218506
1768775310029.663,1289.3772893772891,,0,-1,1768775310.029663
1768775310037.4756,1296.7032967032967,,0,-1,1768775310.0374756
1768775310045.288,1304.0293040293038,,0,-1,1768775310.045288
1768775310053.1006,1314.2857142857142,,0,-1,1768775310.0531006
1768775310060.913,1326.007326007326,,0,-1,1768775310.060913
1768775310068.7256,1336.263736263736,,0,-1,1768775310.0687256
1768775310076.538,1345.7875457875457,,0,-1,1768775310.076538
1768775310084.3506,1354.5787545787546,,0,-1,1768775310.0843506
1768775310092.163,1358.241758241758,,0,-1,1768775310.092163
1768775310099.9756,1358.241758241758,,0,-1,1768775310.0999756
1768775310107.788,1363.3699633699632,,0,-1,1768775310.107788
1768775310115.6006,1374.3589743589744,,0,-1,1768775310.1156006
1768775310123.413,1380.952380952381,,0,-1,1768775310.123413
1768775310131.2256,1384.6153846153843,,0,-1,1768775310.1312256
1768775310139.038,1385.3479853479853,,0,-1,1768775310.139038
1768775310146.8506,1380.952380952381,,0,-1,1768775310.1468506
1768775310154.663,1380.2197802197802,,0,-1,1768775310.154663
1768775310162.4756,1378.021978021978,,0,-1,1768775310.1624756
1768775310170.288,1380.2197802197802,,0,-1,1768775310.170288
1768775310178.1006,1389.7435897435896,,0,-1,1768775310.1781006
1768775310185.913,1394.8717948717947,,0,-1,1768775310.185913
1768775310193.7256,1400.7326007326003,,0,-1,1768775310.1937256
1768775310201.538,1400.7326007326003,,0,-1,1768775310.201538
1768775310209.3506,1402.9304029304028,,0,-1,1768775310.2093506
1768775310217.163,1402.197802197802,,0,-1,1768775310.217163
1768775310224.9756,1402.9304029304028,,0,-1,1768775310.2249756
1768775310232.788,1401.4652014652013,,0,-1,1768775310.232788
1768775310240.6006,1401.4652014652013,,0,-1,1768775310.2406006
1768775310248.413,1397.8021978021975,,0,-1,1768775310.248413
1768775310256.2256,1395.6043956043954,,0,-1,1768775310.2562256
1768775310264.038,1389.7435897435896,,0,-1,1768775310.264038
1768775310271.8506,1385.3479853479853,,0,-1,1768775310.2718506
1768775310279.663,1386.8131868131868,,0,-1,1768775310.279663
1768775310287.4756,1388.278388278388,,0,-1,1768775310.2874756
1768775310295.288,1392.6739926739926,,0,-1,1768775310.295288
1768775310303.1006,1390.4761904761904,,0,-1,1768775310.3031006
1768775310310.913,1388.278388278388,,0,-1,1768775310.310913
1768775310318.7256,1380.2197802197802,,0,-1,1768775310.3187256
1768775310326.538,1371.428571428571,,0,-1,1768775310.326538
1768775310334.3506,1367.7655677655678,,0,-1,1768775310.3343506
1768775310342.163,1363.3699633699632,,0,-1,1768775310.342163
1768775310349.9756,1363.3699633699632,,0,-1,1768775310.3499756
1768775310357.788,1368.4981684981683,,0,-1,1768775310.357788
1768775310365.6006,1367.7655677655678,,0,-1,1768775310.3656006
1768775310373.413,1372.161172161172,,0,-1,1768775310.373413
1768775310381.2256,1380.2197802197802,,0,-1,1768775310.3812256
1768775310389.038,1382.4175824175825,,0,-1,1768775310.389038
1768775310396.8506,1390.4761904761904,,0,-1,1768775310.3968506
1768775310404.663,1394.139194139194,,0,-1,1768775310.404663
1768775310412.4756,1400.0,,0,-1,1768775310.4124756
1768775310420.288,1398.5347985347985,,0,-1,1768775310.420288
1768775310428.1006,1400.0,,0,-1,1768775310.4281006
1768775310435.913,1397.069597069597,,0,-1,1768775310.435913
1768775310443.7256,1394.139194139194,,0,-1,1768775310.4437256
1768775310451.538,1386.8131868131868,,0,-1,1768775310.451538
1768775310459.3506,1387.5457875457876,,0,-1,1768775310.4593506
1768775310467.163,1386.080586080586,,0,-1,1768775310.467163
1768775310474.9756,1389.7435897435896,,0,-1,1768775310.4749756
1768775310482.788,1391.2087912087911,,0,-1,1768775310.482788
1768775310490.6006,1387.5457875457876,,0,-1,1768775310.4906006
1768775310498.413,1386.080586080586,,0,-1,1768775310.498413
1768775310506.2256,1377.2893772893772,,0,-1,1768775310.5062256
1768775310514.038,1371.428571428571,,0,-1,1768775310.514038
1768775310521.8506,1361.904761904762,,0,-1,1768775310.5218506
1768775310529.663,1359.7069597069597,,0,-1,1768775310.529663
1768775310537.4756,1359.7069597069597,,0,-1,1768775310.5374756
1768775310545.288,1359.7069597069597,,0,-1,1768775310.545288
1768775310553.1006,1363.3699633699632,,0,-1,1768775310.5531006
1768775310560.913,1365.5677655677655,,0,-1,1768775310.560913
1768775310568.7256,1371.428571428571,,0,-1,1768775310.5687256
1768775310576.538,1371.428571428571,,0,-1,1768775310.576538
1768775310584.3506,1376.5567765567764,,0,-1,1768775310.5843506
1768775310592.163,1377.2893772893772,,0,-1,1768775310.592163
1768775310599.9756,1374.3589743589744,,0,-1,1768775310.5999756
1768775310607.788,1370.6959706959706,,0,-1,1768775310.607788
1768775310615.6006,1367.032967032967,,0,-1,1768775310.6156006
1768775310623.413,1359.7069597069597,,0,-1,1768775310.623413
1768775310631.2256,1347.985347985348,,0,-1,1768775310.6312256
1768775310639.038,1341.3919413919414,,0,-1,1768775310.639038
1768775310646.8506,1334.065934065934,,0,-1,1768775310.6468506
1768775310654.663,1326.007326007326,,0,-1,1768775310.654663
1768775310662.4756,1324.5421245421244,,0,-1,1768775310.6624756
1768775310670.288,1319.4139194139193,,0,-1,1768775310.670288
1768775310678.1006,1317.9487179487178,,0,-1,1768775310.6781006
1768775310685.913,1315.7509157509155,,0,-1,1768775310.685913
1768775310693.7256,1306.9597069597069,,0,-1,1768775310.6937256
1768775310701.538,1301.8315018315018,,0,-1,1768775310.701538
1768775310709.3506,1297.4358974358977,,0,-1,1768775310.7093506
1768775310717.163,1298.168498168498,,0,-1,1768775310.717163
1768775310724.9756,1304.0293040293038,,0,-1,1768775310.7249756
1768775310732.788,1314.2857142857142,,0,-1,1768775310.732788
1768775310740.6006,1320.8791208791208,,0,-1,1768775310.7406006
1768775310748.413,1327.4725274725274,,0,-1,1768775310.748413
1768775310756.2256,1332.6007326007325,,0,-1,1768775310.7562256
1768775310764.038,1329.6703296703297,,0,-1,1768775310.764038
1768775310771.8506,1326.739926739927,,0,-1,1768775310.7718506
1768775310779.663,1323.8095238095236,,0,-1,1768775310.779663
1768775310787.4756,1320.14652014652,,0,-1,1768775310.7874756
1768775310795.288,1320.8791208791208,,0,-1,1768775310.795288
1768775310803.1006,1317.9487179487178,,0,-1,1768775310.8031006
1768775310810.913,1317.216117216117,,0,-1,1768775310.810913
1768775310818.7256,1315.018315018315,,0,-1,1768775310.8187256
1768775310826.538,1306.227106227106,,0,-1,1768775310.826538
1768775310834.3506,1300.3663003663005,,0,-1,1768775310.8343506
1768775310842.163,1295.970695970696,,0,-1,1768775310.842163
1768775310849.9756,1289.3772893772891,,0,-1,1768775310.8499756
1768775310857.788,1288.6446886446886,,1,1,1768775310.857788
1768775310865.6006,1290.8424908424909,,1,1,1768775310.8656006
1768775310873.413,1289.3772893772891,,1,1,1768775310.873413
1768775310881.2256,1287.9120879120878,,1,1,1768775310.8812256
1768775310889.038,1288.6446886446886,,1,1,1768775310.889038
1768775310896.8506,1281.3186813186812,,1,1,1768775310.8968506
1768775310904.663,1276.923076923077,,1,1,1768775310.904663
1768775310912.4756,1278.3882783882782,,1,1,1768775310.9124756
1768775310920.288,1276.923076923077,,1,1,1768775310.920288
1768775310928.1006,1282.051282051282,,1,1,1768775310.9281006
1768775310935.913,1281.3186813186812,,1,1,1768775310.935913
1768775310943.7256,1282.051282051282,,1,1,1768775310.9437256
1768775310951.538,1286.4468864468863,,1,1,1768775310.951538
1768775310959.3506,1292.3076923076922,,1,1,1768775310.9593506
1768775310967.163,1302.5641025641023,,1,1,1768775310.967163
1768775310974.9756,1314.2857142857142,,1,1,1768775310.9749756
1768775310982.788,1318.6813186813183,,1,1,1768775310.982788
1768775310990.6006,1323.8095238095236,,1,1,1768775310.9906006
1768775310998.413,1326.739926739927,,1,1,1768775310.998413
1768775311006.2256,1326.007326007326,,1,1,1768775311.0062256
1768775311014.038,1325.2747252747251,,1,1,1768775311.014038
1768775311021.8506,1328.937728937729,,1,1,1768775311.0218506
1768775311029.663,1330.4029304029302,,1,1,1768775311.029663
1768775311037.4756,1339.194139194139,,1,1,1768775311.0374756
1768775311045.288,1347.985347985348,,1,1,1768775311.045288
1768775311053.1006,1352.3809523809523,,1,1,1768775311.0531006
1768775311060.913,1358.974358974359,,1,1,1768775311.060913
1768775311068.7256,1370.6959706959706,,1,1,1768775311.0687256
1768775311076.538,1378.7545787545787,,1,1,1768775311.076538
1768775311084.3506,1387.5457875457876,,1,1,1768775311.0843506
1768775311092.163,1394.139194139194,,1,1,1768775311.092163
1768775311099.9756,1399.2673992673992,,1,1,1768775311.0999756
1768775311107.788,1394.8717948717947,,1,1,1768775311.107788
1768775311115.6006,1388.278388278388,,1,1,1768775311.1156006
1768775311123.413,1387.5457875457876,,1,1,1768775311.123413
1768775311131.2256,1386.8131868131868,,1,1,1768775311.1312256
1768775311139.038,1391.941391941392,,1,1,1768775311.139038
1768775311146.8506,1391.941391941392,,1,1,1768775311.1468506
1768775311154.663,1392.6739926739926,,1,1,1768775311.154663
1768775311162.4756,1391.941391941392,,1,1,1768775311.1624756
1768775311170.288,1392.6739926739926,,1,1,1768775311.170288
1768775311178.1006,1396.3369963369962,,1,1,1768775311.1781006
1768775311185.913,1398.5347985347985,,1,1,1768775311.185913
1768775311193.7256,1400.0,,1,1,1768775311.1937256
1768775311201.538,1400.0,,1,1,1768775311.201538
1768775311209.3506,1402.9304029304028,,1,1,1768775311.2093506
1768775311217.163,1399.2673992673992,,1,1,1768775311.217163
1768775311224.9756,1394.139194139194,,1,1,1768775311.2249756
1768775311232.788,1394.8717948717947,,1,1,1768775311.232788
1768775311240.6006,1391.941391941392,,1,1,1768775311.2406006
1768775311248.413,1393.4065934065934,,1,1,1768775311.248413
1768775311256.2256,1391.941391941392,,1,1,1768775311.2562256
1768775311264.038,1389.0109890109889,,1,1,1768775311.264038
1768775311271.8506,1391.941391941392,,1,1,1768775311.2718506
1768775311279.663,1394.8717948717947,,1,1,1768775311.279663
1768775311287.4756,1395.6043956043954,,1,1,1768775311.2874756
1768775311295.288,1400.0,,1,1,1768775311.295288
1768775311303.1006,1404.3956043956043,,1,1,1768775311.3031006
1768775311310.913,1409.5238095238094,,1,1,1768775311.310913
1768775311318.7256,1410.2564102564102,,1,1,1768775311.3187256
1768775311326.538,1407.3260073260071,,1,1,1768775311.326538
1768775311334.3506,1404.3956043956043,,1,1,1768775311.3343506
1768775311342.163,1404.3956043956043,,1,1,1768775311.342163
1768775311349.9756,1405.8608058608058,,1,1,1768775311.3499756
1768775311357.788,1402.197802197802,,1,1,1768775311.357788
1768775311365.6006,1395.6043956043954,,1,1,1768775311.3656006
1768775311373.413,1391.2087912087911,,1,1,1768775311.373413
1768775311381.2256,1387.5457875457876,,1,1,1768775311.3812256
1768775311389.038,1383.150183150183,,1,1,1768775311.389038
1768775311396.8506,1374.3589743589744,,1,1,1768775311.3968506
1768775311404.663,1369.230769230769,,1,1,1768775311.404663
1768775311412.4756,1366.3003663003662,,1,1,1768775311.4124756
1768775311420.288,1358.974358974359,,1,1,1768775311.420288
1768775311428.1006,1351.6483516483515,,1,1,1768775311.4281006
1768775311435.913,1350.18315018315,,1,1,1768775311.435913
1768775311443.7256,1354.5787545787546,,1,1,1768775311.4437256
1768775311451.538,1358.241758241758,,1,1,1768775311.451538
1768775311459.3506,1359.7069597069597,,1,1,1768775311.4593506
1768775311467.163,1358.974358974359,,1,1,1768775311.467163
1768775311474.9756,1359.7069597069597,,1,1,1768775311.4749756
1768775311482.788,1361.904761904762,,1,1,1768775311.482788
1768775311490.6006,1363.3699633699632,,1,1,1768775311.4906006
1768775311498.413,1364.8351648351647,,1,1,1768775311.498413
1768775311506.2256,1365.5677655677655,,1,1,1768775311.5062256
1768775311514.038,1364.102564102564,,1,1,1768775311.514038
1768775311521.8506,1361.904761904762,,1,1,1768775311.5218506
1768775311529.663,1360.4395604395604,,1,1,1768775311.529663
1768775311537.4756,1353.8461538461538,,1,1,1768775311.5374756
1768775311545.288,1345.7875457875457,,1,1,1768775311.545288
1768775311553.1006,1338.4615384615383,,1,1,1768775311.5531006
1768775311560.913,1330.4029304029302,,1,1,1768775311.560913
1768775311568.7256,1328.2051282051282,,1,1,1768775311.5687256
1768775311576.538,1326.739926739927,,1,1,1768775311.576538
1768775311584.3506,1326.739926739927,,1,1,1768775311.5843506
1768775311592.163,1323.076923076923,,1,1,1768775311.592163
1768775311599.9756,1316.4835164835165,,1,1,1768775311.5999756
1768775311607.788,1314.2857142857142,,1,1,1768775311.607788
1768775311615.6006,1310.6227106227104,,1,1,1768775311.6156006
1768775311623.413,1308.4249084249084,,1,1,1768775311.623413
1768775311631.2256,1309.1575091575091,,1,1,1768775311.6312256
1768775311639.038,1312.8205128205127,,1,1,1768775311.639038
1768775311646.8506,1314.2857142857142,,1,1,1768775311.6468506
1768775311654.663,1320.8791208791208,,1,1,1768775311.654663
1768775311662.4756,1325.2747252747251,,1,1,1768775311.6624756
1768775311670.3186,1329.6703296703297,,1,1,1768775311.6703186
1768775311678.1006,1332.6007326007325,,1,1,1768775311.6781006
1768775311685.913,1329.6703296703297,,1,1,1768775311.685913
1768775311693.7256,1329.6703296703297,,1,1,1768775311.6937256
1768775311701.538,1331.8681318681315,,1,1,1768775311.701538
1768775311709.3506,1334.7985347985348,,1,1,1768775311.7093506
1768775311717.163,1341.3919413919414,,1,1,1768775311.717163
1768775311724.9756,1344.3223443223442,,1,1,1768775311.7249756
1768775311732.788,1343.5897435897434,,1,1,1768775311.732788
1768775311740.6006,1342.857142857143,,1,1,1768775311.7406006
1768775311748.413,1344.3223443223442,,1,1,1768775311.748413
1768775311756.2256,1344.3223443223442,,1,1,1768775311.7562256
1768775311764.038,1345.7875457875457,,1,1,1768775311.764038
1768775311771.8506,1345.7875457875457,,1,1,1768775311.7718506
1768775311779.663,1342.124542124542,,1,1,1768775311.779663
1768775311787.4756,1336.263736263736,,1,1,1768775311.7874756
1768775311795.288,1328.937728937729,,1,1,1768775311.795288
1768775311803.1006,1322.3443223443223,,1,1,1768775311.8031006
1768775311810.913,1317.216117216117,,1,1,1768775311.810913
1768775311818.7256,1308.4249084249084,,1,1,1768775311.8187256
1768775311826.538,1300.3663003663005,,1,1,1768775311.826538
1768775311834.3506,1296.7032967032967,,1,1,1768775311.8343506
1768775311842.163,1293.040293040293,,1,1,1768775311.842163
1768775311849.9756,1288.6446886446886,,1,1,1768775311.8499756
1768775311857.788,1287.179487179487,,1,1,1768775311.857788
1768775311865.6006,1286.4468864468863,,1,1,1768775311.8656006
1768775311873.413,1287.9120879120878,,1,1,1768775311.873413
1768775311881.2256,1291.5750915750914,,1,1,1768775311.8812256
1768775311889.038,1300.3663003663005,,1,1,1768775311.889038
1768775311896.8506,1310.6227106227104,,1,1,1768775311.8968506
1768775311904.663,1320.8791208791208,,1,1,1768775311.904663
1768775311912.4756,1324.5421245421244,,1,1,1768775311.9124756
1768775311920.288,1328.937728937729,,1,1,1768775311.920288
1768775311928.1006,1337.7289377289376,,1,1,1768775311.9281006
1768775311935.913,1347.985347985348,,1,1,1768775311.935913
1768775311943.7256,1358.241758241758,,1,1,1768775311.9437256
1768775311951.538,1369.230769230769,,1,1,1768775311.951538
1768775311959.3506,1380.952380952381,,1,1,1768775311.9593506
1768775311967.163,1391.2087912087911,,1,1,1768775311.967163
1768775311974.9756,1400.7326007326003,,1,1,1768775311.9749756
1768775311982.788,1408.058608058608,,1,1,1768775311.982788
1768775311990.6006,1413.1868131868132,,1,1,1768775311.9906006
1768775311998.413,1413.9194139194135,,1,1,1768775311.998413
1768775312006.2256,1410.2564102564102,,1,1,1768775312.0062256
1768775312014.038,1409.5238095238094,,1,1,1768775312.014038
1768775312021.8506,1412.4542124542124,,1,1,1768775312.0218506
1768775312029.663,1416.8498168498168,,1,1,1768775312.029663
1768775312037.4756,1419.7802197802198,,1,1,1768775312.0374756
1768775312045.288,1419.047619047619,,1,1,1768775312.045288
1768775312053.1006,1416.8498168498168,,1,1,1768775312.0531006
1768775312060.913,1413.1868131868132,,1,1,1768775312.060913
1768775312068.7256,1413.9194139194135,,1,1,1768775312.0687256
1768775312076.538,1417.5824175824175,,1,1,1768775312.076538
1768775312084.3506,1421.245421245421,,1,1,1768775312.0843506
1768775312092.163,1422.7106227106226,,1,1,1768775312.092163
1768775312099.9756,1425.6410256410256,,1,1,1768775312.0999756
1768775312107.788,1429.3040293040292,,1,1,1768775312.107788
1768775312115.6006,1432.2344322344322,,1,1,1768775312.1156006
1768775312123.413,1434.4322344322345,,1,1,1768775312.123413
1768775312131.2256,1437.362637362637,,1,1,1768775312.1312256
1768775312139.038,1435.8974358974358,,1,1,1768775312.139038
1768775312146.8506,1431.5018315018317,,1,1,1768775312.1468506
1768775312154.663,1430.03663003663,,1,1,1768775312.154663
1768775312162.4756,1430.7692307692307,,1,1,1768775312.1624756
1768775312170.288,1434.4322344322345,,1,1,1768775312.170288
1768775312178.1006,1438.095238095238,,1,1,1768775312.1781006
1768775312185.913,1441.0256410256409,,1,1,1768775312.185913
1768775312193.7256,1440.29304029304,,1,1,1768775312.1937256
1768775312201.538,1434.4322344322345,,1,1,1768775312.201538
1768775312209.3506,1427.8388278388277,,1,1,1768775312.2093506
1768775312217.163,1419.7802197802198,,1,1,1768775312.217163
1768775312224.9756,1409.5238095238094,,1,1,1768775312.2249756
1768775312232.788,1402.9304029304028,,1,1,1768775312.232788
1768775312240.6006,1402.9304029304028,,1,1,1768775312.2406006
1768775312248.413,1407.3260073260071,,1,1,1768775312.248413
1768775312256.2256,1412.4542124542124,,1,1,1768775312.2562256
1768775312264.038,1418.3150183150185,,1,1,1768775312.264038
1768775312271.8506,1423.4432234432234,,1,1,1768775312.2718506
1768775312279.663,1426.3736263736262,,1,1,1768775312.279663
1768775312287.4756,1424.9084249084249,,1,1,1768775312.2874756
1768775312295.288,1420.5128205128203,,1,1,1768775312.295288
1768775312303.1006,1416.117216117216,,1,1,1768775312.3031006
1768775312310.913,1412.4542124542124,,1,1,1768775312.310913
1768775312318.7256,1409.5238095238094,,1,1,1768775312.3187256
1768775312326.538,1409.5238095238094,,1,1,1768775312.326538
1768775312334.3506,1403.6630036630036,,1,1,1768775312.3343506
1768775312342.163,1394.8717948717947,,1,1,1768775312.342163
1768775312349.9756,1389.7435897435896,,1,1,1768775312.3499756
1768775312357.788,1386.080586080586,,1,1,1768775312.357788
1768775312365.6006,1382.4175824175825,,1,1,1768775312.3656006
1768775312373.413,1386.8131868131868,,1,1,1768775312.373413
1768775312381.2256,1391.941391941392,,1,1,1768775312.3812256
1768775312389.038,1394.8717948717947,,1,1,1768775312.389038
1768775312396.8506,1394.139194139194,,1,1,1768775312.3968506
1768775312404.663,1393.4065934065934,,1,1,1768775312.404663
1768775312412.4756,1389.7435897435896,,1,1,1768775312.4124756
1768775312420.288,1383.8827838827838,,1,1,1768775312.420288
1768775312428.1006,1378.021978021978,,1,1,1768775312.4281006
1768775312435.913,1375.091575091575,,1,1,1768775312.435913
1768775312443.7256,1370.6959706959706,,1,1,1768775312.4437256
1768775312451.538,1367.7655677655678,,1,1,1768775312.451538
1768775312459.3506,1364.8351648351647,,1,1,1768775312.4593506
1768775312467.163,1360.4395604395604,,1,1,1768775312.467163
1768775312474.9756,1358.974358974359,,1,1,1768775312.4749756
1768775312482.788,1358.974358974359,,1,1,1768775312.482788
1768775312490.6006,1362.6373626373625,,1,1,1768775312.4906006
1768775312498.413,1365.5677655677655,,1,1,1768775312.498413
1768775312506.2256,1364.102564102564,,1,1,1768775312.5062256
1768775312514.038,1359.7069597069597,,1,1,1768775312.514038
1768775312521.8506,1358.241758241758,,1,1,1768775312.5218506
1768775312529.663,1356.7765567765566,,1,1,1768775312.529663
1768775312537.4756,1353.113553113553,,1,1,1768775312.5374756
1768775312545.288,1347.2527472527472,,1,1,1768775312.545288
1768775312553.1006,1345.054945054945,,1,1,1768775312.5531006
1768775312560.913,1345.054945054945,,1,1,1768775312.560913
1768775312568.7256,1345.7875457875457,,1,1,1768775312.5687256
1768775312576.538,1345.7875457875457,,1,1,1768775312.576538
1768775312584.3506,1345.054945054945,,1,1,1768775312.5843506
1768775312592.163,1342.857142857143,,1,1,1768775312.592163
1768775312599.9756,1342.124542124542,,1,1,1768775312.5999756
1768775312607.788,1341.3919413919414,,1,1,1768775312.607788
1768775312615.6006,1341.3919413919414,,1,1,1768775312.6156006
1768775312623.413,1339.194139194139,,1,1,1768775312.623413
1768775312631.2256,1336.9963369963368,,1,1,1768775312.6312256
1768775312639.038,1335.5311355311355,,1,1,1768775312.639038
1768775312646.8506,1333.3333333333333,,1,1,1768775312.6468506
1768775312654.663,1330.4029304029302,,1,1,1768775312.654663
1768775312662.4756,1326.739926739927,,1,1,1768775312.6624756
1768775312670.288,1323.076923076923,,1,1,1768775312.670288
1768775312678.1006,1320.14652014652,,1,1,1768775312.6781006
1768775312685.913,1319.4139194139193,,1,1,1768775312.685913
1768775312693.7256,1319.4139194139193,,1,1,1768775312.6937256
1768775312701.538,1317.9487179487178,,1,1,1768775312.701538
1768775312709.3506,1316.4835164835165,,1,1,1768775312.7093506
1768775312717.163,1312.8205128205127,,1,1,1768775312.717163
1768775312724.9756,1311.3553113553112,,1,1,1768775312.7249756
1768775312732.788,1312.8205128205127,,1,1,1768775312.732788
1768775312740.6006,1315.018315018315,,1,1,1768775312.7406006
1768775312748.413,1317.216117216117,,1,1,1768775312.748413
1768775312756.2256,1323.076923076923,,1,1,1768775312.7562256
1768775312764.038,1328.937728937729,,1,1,1768775312.764038
1768775312771.8506,1336.263736263736,,1,1,1768775312.7718506
1768775312779.663,1342.857142857143,,1,1,1768775312.779663
1768775312787.4756,1351.6483516483515,,1,1,1768775312.7874756
1768775312795.288,1362.6373626373625,,1,1,1768775312.795288
1768775312803.1006,1375.091575091575,,1,1,1768775312.8031006
1768775312810.913,1387.5457875457876,,1,1,1768775312.810913
1768775312818.7256,1400.7326007326003,,1,1,1768775312.8187256
1768775312826.538,1413.1868131868132,,1,1,1768775312.826538
1768775312834.3506,1427.8388278388277,,1,1,1768775312.8343506
1768775312842.163,1438.095238095238,,1,1,1768775312.842163
1768775312849.9756,1443.956043956044,,1,1,1768775312.8499756
1768775312857.788,1449.8168498168498,,1,1,1768775312.857788
1768775312865.6006,1453.479853479853,,1,1,1768775312.8656006
1768775312873.413,1455.6776556776556,,1,1,1768775312.873413
1768775312881.2256,1459.3406593406592,,1,1,1768775312.8812256
1768775312889.038,1464.4688644688645,,1,1,1768775312.889038
1768775312896.8506,1467.3992673992673,,1,1,1768775312.8968506
1768775312904.663,1468.8644688644688,,1,1,1768775312.904663
1768775312912.4756,1466.6666666666663,,1,1,1768775312.9124756
1768775312920.288,1463.7362637362637,,1,1,1768775312.920288
1768775312928.1006,1457.142857142857,,1,1,1768775312.9281006
1768775312935.913,1449.084249084249,,1,1,1768775312.935913
1768775312943.7256,1441.7582417582416,,1,1,1768775312.9437256
1768775312951.538,1434.4322344322345,,1,1,1768775312.951538
1768775312959.3506,1428.5714285714284,,1,1,1768775312.9593506
1768775312967.163,1422.7106227106226,,1,1,1768775312.967163
1768775312974.9756,1421.245421245421,,1,1,1768775312.9749756
1768775312982.788,1420.5128205128203,,1,1,1768775312.982788
1768775312990.6006,1419.7802197802198,,1,1,1768775312.9906006
1768775312998.413,1421.9780219780218,,1,1,1768775312.998413
1768775313006.2256,1423.4432234432234,,1,1,1768775313.0062256
1768775313014.038,1423.4432234432234,,1,1,1768775313.014038
1768775313021.8506,1421.245421245421,,1,1,1768775313.0218506
1768775313029.663,1418.3150183150185,,1,1,1768775313.029663
1768775313037.4756,1418.3150183150185,,1,1,1768775313.0374756
1768775313045.288,1421.245421245421,,1,1,1768775313.045288
1768775313053.1006,1425.6410256410256,,1,1,1768775313.0531006
1768775313060.913,1427.106227106227,,1,1,1768775313.060913
1768775313068.7256,1428.5714285714284,,1,1,1768775313.0687256
1768775313076.538,1429.3040293040292,,1,1,1768775313.076538
1768775313084.3506,1424.9084249084249,,1,1,1768775313.0843506
1768775313092.163,1419.047619047619,,1,1,1768775313.092163
1768775313099.9756,1416.8498168498168,,1,1,1768775313.0999756
1768775313107.788,1416.8498168498168,,1,1,1768775313.107788
1768775313115.6006,1416.8498168498168,,1,1,1768775313.1156006
1768775313123.413,1413.1868131868132,,1,1,1768775313.123413
1768775313131.2256,1408.058608058608,,1,1,1768775313.1312256
1768775313139.038,1407.3260073260071,,1,1,1768775313.139038
1768775313146.8506,1407.3260073260071,,1,1,1768775313.1468506
1768775313154.663,1404.3956043956043,,1,1,1768775313.154663
1768775313162.4756,1401.4652014652013,,1,1,1768775313.1624756
1768775313170.3186,1400.0,,1,1,1768775313.1703186
1768775313178.1006,1398.5347985347985,,1,1,1768775313.1781006
1768775313185.913,1396.3369963369962,,1,1,1768775313.185913
1768775313193.7256,1393.4065934065934,,1,1,1768775313.1937256
1768775313201.538,1394.8717948717947,,1,1,1768775313.201538
1768775313209.3506,1397.8021978021975,,1,1,1768775313.2093506
1768775313217.163,1397.8021978021975,,1,1,1768775313.217163
1768775313224.9756,1396.3369963369962,,1,1,1768775313.2249756
1768775313232.788,1397.8021978021975,,1,1,1768775313.232788
1768775313240.6006,1400.0,,1,1,1768775313.2406006
1768775313248.413,1399.2673992673992,,1,1,1768775313.248413
1768775313256.2256,1393.4065934065934,,1,1,1768775313.2562256
1768775313264.038,1386.8131868131868,,1,1,1768775313.264038
1768775313271.8506,1380.2197802197802,,1,1,1768775313.2718506
1768775313279.663,1372.8937728937728,,1,1,1768775313.279663
1768775313287.4756,1368.4981684981683,,1,1,1768775313.2874756
1768775313295.288,1365.5677655677655,,1,1,1768775313.295288
1768775313303.1006,1361.904761904762,,1,1,1768775313.3031006
1768775313310.913,1357.5091575091574,,1,1,1768775313.310913
1768775313318.7256,1357.5091575091574,,1,1,1768775313.3187256
1768775313326.538,1358.241758241758,,1,1,1768775313.326538
1768775313334.3506,1355.311355311355,,1,1,1768775313.3343506
1768775313342.163,1350.9157509157508,,1,1,1768775313.342163
1768775313349.9756,1352.3809523809523,,1,1,1768775313.3499756
1768775313357.788,1347.985347985348,,1,1,1768775313.357788
1768775313365.6006,1346.5201465201465,,1,1,1768775313.3656006
1768775313373.413,1344.3223443223442,,1,1,1768775313.373413
1768775313381.2256,1344.3223443223442,,1,1,1768775313.3812256
1768775313389.038,1345.054945054945,,1,1,1768775313.389038
1768775313396.8506,1341.3919413919414,,1,1,1768775313.3968506
1768775313404.663,1339.194139194139,,1,1,1768775313.404663
1768775313412.4756,1337.7289377289376,,1,1,1768775313.4124756
1768775313420.288,1334.065934065934,,1,1,1768775313.420288
1768775313428.1006,1333.3333333333333,,1,1,1768775313.4281006
1768775313435.913,1330.4029304029302,,1,1,1768775313.435913
1768775313443.7256,1324.5421245421244,,1,1,1768775313.4437256
1768775313451.538,1328.937728937729,,1,1,1768775313.451538
1768775313459.3506,1331.135531135531,,1,1,1768775313.4593506
1768775313467.163,1339.194139194139,,1,1,1768775313.467163
1768775313474.9756,1342.857142857143,,1,1,1768775313.4749756
1768775313482.788,1345.7875457875457,,1,1,1768775313.482788
1768775313490.6006,1345.7875457875457,,1,1,1768775313.4906006
1768775313498.413,1342.124542124542,,1,1,1768775313.498413
1768775313506.2256,1336.9963369963368,,1,1,1768775313.5062256
1768775313514.038,1334.065934065934,,1,1,1768775313.514038
1768775313521.8506,1328.2051282051282,,1,1,1768775313.5218506
1768775313529.663,1327.4725274725274,,1,1,1768775313.529663
1768775313537.4756,1326.739926739927,,1,1,1768775313.5374756
1768775313545.288,1326.739926739927,,1,1,1768775313.545288
1768775313553.1006,1329.6703296703297,,1,1,1768775313.5531006
1768775313560.913,1328.937728937729,,1,1,1768775313.560913
1768775313568.7256,1334.065934065934,,1,1,1768775313.5687256
1768775313576.538,1336.9963369963368,,1,1,1768775313.576538
1768775313584.3506,1342.124542124542,,1,1,1768775313.5843506
1768775313592.163,1343.5897435897434,,1,1,1768775313.592163
1768775313599.9756,1350.18315018315,,1,1,1768775313.5999756
1768775313607.788,1355.311355311355,,1,1,1768775313.607788
1768775313615.6006,1369.230769230769,,1,1,1768775313.6156006
1768775313623.413,1378.7545787545787,,1,1,1768775313.623413
1768775313631.2256,1391.941391941392,,1,1,1768775313.6312256
1768775313639.038,1400.7326007326003,,1,1,1768775313.639038
1768775313646.8506,1405.8608058608058,,1,1,1768775313.6468506
1768775313654.663,1414.6520146520145,,1,1,1768775313.654663
1768775313662.4756,1418.3150183150185,,1,1,1768775313.6624756
1768775313670.288,1426.3736263736262,,1,1,1768775313.670288
1768775313678.1006,1427.106227106227,,1,1,1768775313.6781006
1768775313685.913,1434.4322344322345,,1,1,1768775313.685913
1768775313693.7256,1435.8974358974358,,1,1,1768775313.6937256
1768775313701.538,1440.29304029304,,1,1,1768775313.701538
1768775313709.3506,1438.095238095238,,1,1,1768775313.7093506
1768775313717.163,1439.5604395604394,,1,1,1768775313.717163
1768775313724.9756,1438.095238095238,,1,1,1768775313.7249756
1768775313732.788,1440.29304029304,,0,-1,1768775313.732788
1768775313740.6006,1442.4908424908424,,0,-1,1768775313.7406006
1768775313748.413,1443.2234432234432,,0,-1,1768775313.748413
1768775313756.2256,1441.0256410256409,,0,-1,1768775313.7562256
1768775313764.038,1438.095238095238,,0,-1,1768775313.764038
1768775313771.8506,1442.4908424908424,,0,-1,1768775313.7718506
1768775313779.663,1443.956043956044,,0,-1,1768775313.779663
1768775313787.4756,1449.8168498168498,,0,-1,1768775313.7874756
1768775313795.288,1446.8864468864467,,0,-1,1768775313.795288
1768775313803.1006,1443.956043956044,,0,-1,1768775313.8031006
1768775313810.913,1434.4322344322345,,0,-1,1768775313.810913
1768775313818.7256,1429.3040293040292,,0,-1,1768775313.8187256
1768775313826.538,1428.5714285714284,,0,-1,1768775313.826538
1768775313834.3506,1427.8388278388277,,0,-1,1768775313.8343506
1768775313842.163,1430.03663003663,,0,-1,1768775313.842163
1768775313849.9756,1424.9084249084249,,0,-1,1768775313.8499756
1768775313857.788,1421.9780219780218,,0,-1,1768775313.857788
1768775313865.6006,1416.117216117216,,0,-1,1768775313.8656006
1768775313873.413,1417.5824175824175,,0,-1,1768775313.873413
1768775313881.2256,1416.117216117216,,0,-1,1768775313.8812256
1768775313889.038,1416.117216117216,,0,-1,1768775313.889038
1768775313896.8506,1410.989010989011,,0,-1,1768775313.8968506
1768775313904.663,1410.989010989011,,0,-1,1768775313.904663
1768775313912.4756,1405.128205128205,,0,-1,1768775313.9124756
1768775313920.288,1403.6630036630036,,0,-1,1768775313.920288
1768775313928.1006,1397.069597069597,,0,-1,1768775313.9281006
1768775313935.913,1397.069597069597,,0,-1,1768775313.935913
1768775313943.7256,1391.941391941392,,0,-1,1768775313.9437256
1768775313951.538,1391.941391941392,,0,-1,1768775313.951538
1768775313959.3506,1397.069597069597,,0,-1,1768775313.9593506
1768775313967.163,1402.9304029304028,,0,-1,1768775313.967163
1768775313974.9756,1409.5238095238094,,0,-1,1768775313.9749756
1768775313982.788,1412.4542124542124,,0,-1,1768775313.982788
1768775313990.6006,1412.4542124542124,,0,-1,1768775313.9906006
1768775313998.413,1416.8498168498168,,0,-1,1768775313.998413
1768775314006.2256,1422.7106227106226,,0,-1,1768775314.0062256
1768775314014.038,1424.9084249084249,,0,-1,1768775314.014038
1768775314021.8506,1430.03663003663,,0,-1,1768775314.0218506
1768775314029.663,1430.7692307692307,,0,-1,1768775314.029663
1768775314037.4756,1431.5018315018317,,0,-1,1768775314.0374756
1768775314045.288,1433.6996336996335,,0,-1,1768775314.045288
1768775314053.1006,1427.8388278388277,,0,-1,1768775314.0531006
1768775314060.913,1429.3040293040292,,0,-1,1768775314.060913
1768775314068.7256,1426.3736263736262,,0,-1,1768775314.0687256
1768775314076.538,1426.3736263736262,,0,-1,1768775314.076538
1768775314084.3506,1421.245421245421,,0,-1,1768775314.0843506
1768775314092.163,1419.047619047619,,0,-1,1768775314.092163
1768775314099.9756,1410.2564102564102,,0,-1,1768775314.0999756
1768775314107.788,1402.9304029304028,,0,-1,1768775314.107788
1768775314115.6006,1389.7435897435896,,0,-1,1768775314.1156006
1768775314123.413,1380.2197802197802,,0,-1,1768775314.123413
1768775314131.2256,1374.3589743589744,,0,-1,1768775314.1312256
1768775314139.038,1362.6373626373625,,0,-1,1768775314.139038
1768775314146.8506,1355.311355311355,,0,-1,1768775314.1468506
1768775314154.663,1348.7179487179487,,0,-1,1768775314.154663
1768775314162.4756,1343.5897435897434,,0,-1,1768775314.1624756
1768775314170.288,1338.4615384615383,,0,-1,1768775314.170288
1768775314178.1006,1331.8681318681315,,0,-1,1768775314.1781006
1768775314185.913,1329.6703296703297,,0,-1,1768775314.185913
1768775314193.7256,1334.065934065934,,0,-1,1768775314.1937256
1768775314201.538,1335.5311355311355,,0,-1,1768775314.201538
1768775314209.3506,1336.263736263736,,0,-1,1768775314.2093506
1768775314217.163,1339.92673992674,,0,-1,1768775314.217163
1768775314224.9756,1340.6593406593406,,0,-1,1768775314.2249756
1768775314232.788,1347.2527472527472,,0,-1,1768775314.232788
1768775314240.6006,1347.2527472527472,,0,-1,1768775314.2406006
1768775314248.413,1350.9157509157508,,0,-1,1768775314.248413
1768775314256.2256,1354.5787545787546,,0,-1,1768775314.2562256
1768775314264.038,1361.1721611721612,,0,-1,1768775314.264038
1768775314271.8506,1367.032967032967,,0,-1,1768775314.2718506
1768775314279.663,1367.032967032967,,0,-1,1768775314.279663
1768775314287.4756,1369.9633699633698,,0,-1,1768775314.2874756
1768775314295.288,1367.032967032967,,0,-1,1768775314.295288
1768775314303.1006,1367.7655677655678,,0,-1,1768775314.3031006
1768775314310.913,1362.6373626373625,,0,-1,1768775314.310913
1768775314318.7256,1360.4395604395604,,0,-1,1768775314.3187256
1768775314326.538,1351.6483516483515,,0,-1,1768775314.326538
1768775314334.3506,1347.985347985348,,0,-1,1768775314.3343506
1768775314342.163,1339.194139194139,,0,-1,1768775314.342163
1768775314349.9756,1331.135531135531,,0,-1,1768775314.3499756
1768775314357.788,1326.739926739927,,0,-1,1768775314.357788
1768775314365.6006,1323.076923076923,,0,-1,1768775314.3656006
1768775314373.413,1326.007326007326,,0,-1,1768775314.373413
1768775314381.2256,1327.4725274725274,,0,-1,1768775314.3812256
1768775314389.038,1331.8681318681315,,0,-1,1768775314.389038
1768775314396.8506,1332.6007326007325,,0,-1,1768775314.3968506
1768775314404.663,1327.4725274725274,,0,-1,1768775314.404663
1768775314412.4756,1329.6703296703297,,0,-1,1768775314.4124756
1768775314420.288,1327.4725274725274,,0,-1,1768775314.420288
1768775314428.1006,1335.5311355311355,,0,-1,1768775314.4281006
1768775314435.913,1339.92673992674,,0,-1,1768775314.435913
1768775314443.7256,1350.9157509157508,,0,-1,1768775314.4437256
1768775314451.538,1358.241758241758,,0,-1,1768775314.451538
1768775314459.3506,1365.5677655677655,,0,-1,1768775314.4593506
1768775314467.163,1371.428571428571,,0,-1,1768775314.467163
1768775314474.9756,1373.6263736263736,,0,-1,1768775314.4749756
1768775314482.788,1382.4175824175825,,0,-1,1768775314.482788
1768775314490.6006,1387.5457875457876,,0,-1,1768775314.4906006
1768775314498.413,1400.0,,0,-1,1768775314.498413
1768775314506.2256,1405.128205128205,,0,-1,1768775314.5062256
1768775314514.038,1413.1868131868132,,0,-1,1768775314.514038
1768775314521.8506,1413.9194139194135,,0,-1,1768775314.5218506
1768775314529.663,1419.047619047619,,0,-1,1768775314.529663
1768775314537.4756,1420.5128205128203,,0,-1,1768775314.5374756
1768775314545.288,1424.175824175824,,0,-1,1768775314.545288
1768775314553.1006,1427.8388278388277,,0,-1,1768775314.5531006
1768775314560.913,1437.362637362637,,0,-1,1768775314.560913
1768775314568.7256,1441.0256410256409,,0,-1,1768775314.5687256
1768775314576.538,1446.8864468864467,,0,-1,1768775314.576538
1768775314584.3506,1454.9450549450548,,0,-1,1768775314.5843506
1768775314592.163,1457.875457875458,,0,-1,1768775314.592163
1768775314599.9756,1460.07326007326,,0,-1,1768775314.5999756
1768775314607.788,1458.6080586080584,,0,-1,1768775314.607788
1768775314615.6006,1460.805860805861,,0,-1,1768775314.6156006
1768775314623.413,1458.6080586080584,,0,-1,1768775314.623413
1768775314631.2256,1461.5384615384614,,0,-1,1768775314.6312256
1768775314639.038,1460.805860805861,,0,-1,1768775314.639038
1768775314646.8506,1465.201465201465,,0,-1,1768775314.6468506
1768775314654.663,1466.6666666666663,,0,-1,1768775314.654663
1768775314662.4756,1468.131868131868,,0,-1,1768775314.6624756
1768775314670.288,1470.3296703296703,,0,-1,1768775314.670288
1768775314678.1006,1470.3296703296703,,0,-1,1768775314.6781006
1768775314685.913,1470.3296703296703,,0,-1,1768775314.685913
1768775314693.7256,1468.8644688644688,,0,-1,1768775314.6937256
1768775314701.538,1469.5970695970695,,0,-1,1768775314.701538
1768775314709.3506,1471.7948717948716,,0,-1,1768775314.7093506
1768775314717.163,1475.4578754578754,,0,-1,1768775314.717163
1768775314724.9756,1478.3882783882782,,0,-1,1768775314.7249756
1768775314732.788,1479.8534798534797,,0,-1,1768775314.732788
1768775314740.6006,1476.190476190476,,0,-1,1768775314.7406006
1768775314748.413,1471.062271062271,,0,-1,1768775314.748413
1768775314756.2256,1468.8644688644688,,0,-1,1768775314.7562256
1768775314764.038,1461.5384615384614,,0,-1,1768775314.764038
1768775314771.8506,1454.9450549450548,,0,-1,1768775314.7718506
1768775314779.663,1449.8168498168498,,0,-1,1768775314.779663
1768775314787.4756,1441.0256410256409,,0,-1,1768775314.7874756
1768775314795.288,1435.8974358974358,,0,-1,1768775314.795288
1768775314803.1006,1432.2344322344322,,0,-1,1768775314.8031006
1768775314810.913,1431.5018315018317,,0,-1,1768775314.810913
1768775314818.7256,1433.6996336996335,,0,-1,1768775314.8187256
1768775314826.538,1434.4322344322345,,0,-1,1768775314.826538
1768775314834.3506,1433.6996336996335,,0,-1,1768775314.8343506
1768775314842.163,1432.9670329670328,,0,-1,1768775314.842163
1768775314849.9756,1427.106227106227,,0,-1,1768775314.8499756
1768775314857.788,1425.6410256410256,,0,-1,1768775314.857788
1768775314865.6006,1424.9084249084249,,0,-1,1768775314.8656006
1768775314873.413,1424.175824175824,,0,-1,1768775314.873413
1768775314881.2256,1423.4432234432234,,0,-1,1768775314.8812256
1768775314889.038,1418.3150183150185,,0,-1,1768775314.889038
1768775314896.8506,1410.2564102564102,,0,-1,1768775314.8968506
1768775314904.663,1402.9304029304028,,0,-1,1768775314.904663
1768775314912.4756,1397.069597069597,,0,-1,1768775314.9124756
1768775314920.288,1391.2087912087911,,0,-1,1768775314.920288
1768775314928.1006,1386.080586080586,,0,-1,1768775314.9281006
1768775314935.913,1379.4871794871794,,0,-1,1768775314.935913
1768775314943.7256,1370.6959706959706,,0,-1,1768775314.9437256
1768775314951.538,1367.032967032967,,0,-1,1768775314.951538
1768775314959.3506,1367.7655677655678,,0,-1,1768775314.9593506
1768775314967.163,1369.9633699633698,,0,-1,1768775314.967163
1768775314974.9756,1371.428571428571,,0,-1,1768775314.9749756
1768775314982.788,1374.3589743589744,,0,-1,1768775314.982788
1768775314990.6006,1378.021978021978,,0,-1,1768775314.9906006
1768775314998.413,1383.150183150183,,0,-1,1768775314.998413
1768775315006.2256,1387.5457875457876,,0,-1,1768775315.0062256
1768775315014.038,1390.4761904761904,,0,-1,1768775315.014038
1768775315021.8506,1394.139194139194,,0,-1,1768775315.0218506
1768775315029.663,1397.069597069597,,0,-1,1768775315.029663
1768775315037.4756,1397.069597069597,,0,-1,1768775315.0374756
1768775315045.288,1394.8717948717947,,0,-1,1768775315.045288
1768775315053.1006,1391.941391941392,,0,-1,1768775315.0531006
1768775315060.913,1388.278388278388,,0,-1,1768775315.060913
1768775315068.7256,1382.4175824175825,,0,-1,1768775315.0687256
1768775315076.538,1376.5567765567764,,0,-1,1768775315.076538
1768775315084.3506,1372.8937728937728,,0,-1,1768775315.0843506
1768775315092.163,1368.4981684981683,,0,-1,1768775315.092163
1768775315099.9756,1364.102564102564,,0,-1,1768775315.0999756
1768775315107.788,1358.974358974359,,0,-1,1768775315.107788
1768775315115.6006,1356.043956043956,,0,-1,1768775315.1156006
1768775315123.413,1355.311355311355,,0,-1,1768775315.123413
1768775315131.2256,1352.3809523809523,,0,-1,1768775315.1312256
1768775315139.038,1352.3809523809523,,0,-1,1768775315.139038
1768775315146.8506,1353.8461538461538,,0,-1,1768775315.1468506
1768775315154.663,1354.5787545787546,,0,-1,1768775315.154663
1768775315162.4756,1353.113553113553,,0,-1,1768775315.1624756
1768775315170.288,1348.7179487179487,,0,-1,1768775315.170288
1768775315178.1006,1343.5897435897434,,0,-1,1768775315.1781006
1768775315185.913,1338.4615384615383,,0,-1,1768775315.185913
1768775315193.7256,1334.7985347985348,,0,-1,1768775315.1937256
1768775315201.538,1334.065934065934,,0,-1,1768775315.201538
1768775315209.3506,1337.7289377289376,,0,-1,1768775315.2093506
1768775315217.163,1345.7875457875457,,0,-1,1768775315.217163
1768775315224.9756,1353.8461538461538,,0,-1,1768775315.2249756
1768775315232.788,1356.7765567765566,,0,-1,1768775315.232788
1768775315240.6006,1358.241758241758,,0,-1,1768775315.2406006
1768775315248.413,1357.5091575091574,,0,-1,1768775315.248413
1768775315256.2256,1356.043956043956,,0,-1,1768775315.2562256
1768775315264.038,1352.3809523809523,,0,-1,1768775315.264038
1768775315271.8506,1349.4505494505493,,0,-1,1768775315.2718506
1768775315279.663,1347.985347985348,,0,-1,1768775315.279663
1768775315287.4756,1345.054945054945,,0,-1,1768775315.2874756
1768775315295.288,1342.124542124542,,0,-1,1768775315.295288
1768775315303.1006,1336.263736263736,,0,-1,1768775315.3031006
1768775315310.913,1331.135531135531,,0,-1,1768775315.310913
1768775315318.7256,1326.739926739927,,0,-1,1768775315.3187256
1768775315326.538,1320.8791208791208,,0,-1,1768775315.326538
1768775315334.3506,1313.5531135531137,,0,-1,1768775315.3343506
1768775315342.163,1307.6923076923076,,0,-1,1768775315.342163
1768775315349.9756,1306.227106227106,,0,-1,1768775315.3499756
1768775315357.788,1309.1575091575091,,0,-1,1768775315.357788
1768775315365.6006,1315.018315018315,,0,-1,1768775315.3656006
1768775315373.413,1315.018315018315,,0,-1,1768775315.373413
1768775315381.2256,1311.3553113553112,,0,-1,1768775315.3812256
1768775315389.038,1307.6923076923076,,0,-1,1768775315.389038
1768775315396.8506,1301.8315018315018,,0,-1,1768775315.3968506
1768775315404.663,1295.2380952380952,,0,-1,1768775315.404663
1768775315412.4756,1293.7728937728937,,0,-1,1768775315.4124756
1768775315420.288,1296.7032967032967,,0,-1,1768775315.420288
1768775315428.1006,1304.7619047619046,,0,-1,1768775315.4281006
1768775315435.913,1317.216117216117,,0,-1,1768775315.435913
1768775315443.7256,1331.8681318681315,,0,-1,1768775315.4437256
1768775315451.538,1347.2527472527472,,0,-1,1768775315.451538
1768775315459.3506,1361.1721611721612,,0,-1,1768775315.4593506
1768775315467.163,1375.8241758241757,,0,-1,1768775315.467163
1768775315474.9756,1391.2087912087911,,0,-1,1768775315.4749756
1768775315482.788,1405.8608058608058,,0,-1,1768775315.482788
1768775315490.6006,1419.047619047619,,0,-1,1768775315.4906006
1768775315498.413,1429.3040293040292,,0,-1,1768775315.498413
1768775315506.2256,1439.5604395604394,,0,-1,1768775315.5062256
1768775315514.038,1446.8864468864467,,0,-1,1768775315.514038
1768775315521.8506,1452.014652014652,,0,-1,1768775315.5218506
1768775315529.663,1455.6776556776556,,0,-1,1768775315.529663
1768775315537.4756,1454.212454212454,,0,-1,1768775315.5374756
1768775315545.288,1455.6776556776556,,0,-1,1768775315.545288
1768775315553.1006,1457.142857142857,,0,-1,1768775315.5531006
1768775315560.913,1450.5494505494505,,0,-1,1768775315.560913
1768775315568.7256,1443.956043956044,,0,-1,1768775315.5687256
1768775315576.538,1437.362637362637,,0,-1,1768775315.576538
1768775315584.3506,1431.5018315018317,,0,-1,1768775315.5843506
1768775315592.163,1427.106227106227,,0,-1,1768775315.592163
1768775315599.9756,1425.6410256410256,,0,-1,1768775315.5999756
1768775315607.788,1427.106227106227,,0,-1,1768775315.607788
1768775315615.6006,1430.03663003663,,0,-1,1768775315.6156006
1768775315623.413,1433.6996336996335,,0,-1,1768775315.623413
1768775315631.2256,1437.362637362637,,0,-1,1768775315.6312256
1768775315639.038,1440.29304029304,,0,-1,1768775315.639038
1768775315646.8506,1443.956043956044,,0,-1,1768775315.6468506
1768775315654.663,1449.8168498168498,,0,-1,1768775315.654663
1768775315662.4756,1454.9450549450548,,0,-1,1768775315.6624756
1768775315670.288,1457.875457875458,,0,-1,1768775315.670288
1768775315678.1006,1454.9450549450548,,0,-1,1768775315.6781006
1768775315685.913,1452.014652014652,,0,-1,1768775315.685913
1768775315693.7256,1450.5494505494505,,0,-1,1768775315.6937256
1768775315701.538,1451.2820512820513,,0,-1,1768775315.701538
1768775315709.3506,1451.2820512820513,,0,-1,1768775315.7093506
1768775315717.163,1449.8168498168498,,0,-1,1768775315.717163
1768775315724.9756,1446.8864468864467,,0,-1,1768775315.7249756
1768775315732.788,1441.7582417582416,,0,-1,1768775315.732788
1768775315740.6006,1437.362637362637,,0,-1,1768775315.7406006
1768775315748.413,1432.9670329670328,,0,-1,1768775315.748413
1768775315756.2256,1429.3040293040292,,0,-1,1768775315.7562256
1768775315764.038,1427.106227106227,,0,-1,1768775315.764038
1768775315771.8506,1424.9084249084249,,0,-1,1768775315.7718506
1768775315779.663,1424.175824175824,,0,-1,1768775315.779663
1768775315787.4756,1424.175824175824,,0,-1,1768775315.7874756
1768775315795.288,1426.3736263736262,,0,-1,1768775315.795288
1768775315803.1006,1427.106227106227,,0,-1,1768775315.8031006
1768775315810.913,1429.3040293040292,,0,-1,1768775315.810913
1768775315818.7256,1432.2344322344322,,0,-1,1768775315.8187256
1768775315826.538,1432.9670329670328,,0,-1,1768775315.826538
1768775315834.3506,1433.6996336996335,,0,-1,1768775315.8343506
1768775315842.163,1431.5018315018317,,0,-1,1768775315.842163
1768775315849.9756,1428.5714285714284,,0,-1,1768775315.8499756
1768775315857.788,1424.9084249084249,,0,-1,1768775315.857788
1768775315865.6006,1419.047619047619,,0,-1,1768775315.8656006
1768775315873.413,1408.7912087912086,,0,-1,1768775315.873413
1768775315881.2256,1394.8717948717947,,0,-1,1768775315.8812256
1768775315889.038,1383.150183150183,,0,-1,1768775315.889038
1768775315896.8506,1375.091575091575,,0,-1,1768775315.8968506
1768775315904.663,1367.032967032967,,0,-1,1768775315.904663
1768775315912.4756,1361.1721611721612,,0,-1,1768775315.9124756
1768775315920.288,1356.7765567765566,,0,-1,1768775315.920288
1768775315928.1006,1356.043956043956,,0,-1,1768775315.9281006
1768775315935.913,1356.043956043956,,0,-1,1768775315.935913
1768775315943.7256,1358.974358974359,,0,-1,1768775315.9437256
1768775315951.538,1361.904761904762,,0,-1,1768775315.951538
1768775315959.3506,1365.5677655677655,,0,-1,1768775315.9593506
1768775315967.163,1365.5677655677655,,0,-1,1768775315.967163
1768775315974.9756,1363.3699633699632,,0,-1,1768775315.9749756
1768775315982.788,1361.904761904762,,0,-1,1768775315.982788
1768775315990.6006,1360.4395604395604,,0,-1,1768775315.9906006
1768775315998.413,1360.4395604395604,,0,-1,1768775315.998413
1768775316006.2256,1361.1721611721612,,0,-1,1768775316.0062256
1768775316014.038,1362.6373626373625,,0,-1,1768775316.014038
1768775316021.8506,1366.3003663003662,,0,-1,1768775316.0218506
1768775316029.663,1369.9633699633698,,0,-1,1768775316.029663
1768775316037.4756,1369.230769230769,,0,-1,1768775316.0374756
1768775316045.288,1367.7655677655678,,0,-1,1768775316.045288
1768775316053.1006,1364.8351648351647,,0,-1,1768775316.0531006
1768775316060.913,1360.4395604395604,,0,-1,1768775316.060913
1768775316068.7256,1356.043956043956,,0,-1,1768775316.0687256
1768775316076.538,1351.6483516483515,,0,-1,1768775316.076538
1768775316084.3506,1345.054945054945,,0,-1,1768775316.0843506
1768775316092.163,1339.194139194139,,0,-1,1768775316.092163
1768775316099.9756,1337.7289377289376,,0,-1,1768775316.0999756
1768775316107.788,1338.4615384615383,,0,-1,1768775316.107788
1768775316115.6006,1342.124542124542,,0,-1,1768775316.1156006
1768775316123.413,1346.5201465201465,,0,-1,1768775316.123413
1768775316131.2256,1351.6483516483515,,0,-1,1768775316.1312256
1768775316139.038,1354.5787545787546,,0,-1,1768775316.139038
1768775316146.8506,1356.7765567765566,,0,-1,1768775316.1468506
1768775316154.663,1356.043956043956,,0,-1,1768775316.154663
1768775316162.4756,1353.8461538461538,,0,-1,1768775316.1624756
1768775316170.288,1350.18315018315,,0,-1,1768775316.170288
1768775316178.1006,1347.2527472527472,,0,-1,1768775316.1781006
1768775316185.913,1346.5201465201465,,0,-1,1768775316.185913
1768775316193.7256,1346.5201465201465,,0,-1,1768775316.1937256
1768775316201.538,1342.857142857143,,0,-1,1768775316.201538
1768775316209.3506,1336.263736263736,,0,-1,1768775316.2093506
1768775316217.163,1330.4029304029302,,0,-1,1768775316.217163
1768775316224.9756,1327.4725274725274,,0,-1,1768775316.2249756
1768775316232.788,1328.2051282051282,,0,-1,1768775316.232788
1768775316240.6006,1329.6703296703297,,0,-1,1768775316.2406006
1768775316248.413,1328.2051282051282,,0,-1,1768775316.248413
1768775316256.2256,1321.6117216117216,,0,-1,1768775316.2562256
1768775316264.038,1313.5531135531137,,0,-1,1768775316.264038
1768775316271.8506,1309.1575091575091,,0,-1,1768775316.2718506
1768775316279.663,1308.4249084249084,,1,2,1768775316.279663
1768775316287.4756,1309.1575091575091,,1,2,1768775316.2874756
1768775316295.288,1309.89010989011,,1,2,1768775316.295288
1768775316303.1006,1309.89010989011,,1,2,1768775316.3031006
1768775316310.913,1306.227106227106,,1,2,1768775316.310913
1768775316318.7256,1300.3663003663005,,1,2,1768775316.3187256
1768775316326.538,1295.970695970696,,1,2,1768775316.326538
1768775316334.3506,1290.8424908424909,,1,2,1768775316.3343506
1768775316342.163,1286.4468864468863,,1,2,1768775316.342163
1768775316349.9756,1285.7142857142856,,1,2,1768775316.3499756
1768775316357.788,1287.9120879120878,,1,2,1768775316.357788
1768775316365.6006,1291.5750915750914,,1,2,1768775316.3656006
1768775316373.413,1294.5054945054944,,1,2,1768775316.373413
1768775316381.2256,1294.5054945054944,,1,2,1768775316.3812256
1768775316389.038,1295.970695970696,,1,2,1768775316.389038
1768775316396.8506,1298.168498168498,,1,2,1768775316.3968506
1768775316404.663,1301.8315018315018,,1,2,1768775316.404663
1768775316412.4756,1304.0293040293038,,1,2,1768775316.4124756
1768775316420.288,1299.6336996336995,,1,2,1768775316.420288
1768775316428.1006,1293.7728937728937,,1,2,1768775316.4281006
1768775316435.913,1290.8424908424909,,1,2,1768775316.435913
1768775316443.7256,1288.6446886446886,,1,2,1768775316.4437256
1768775316451.538,1283.5164835164835,,1,2,1768775316.451538
1768775316459.3506,1280.5860805860805,,1,2,1768775316.4593506
1768775316467.163,1279.120879120879,,1,2,1768775316.467163
1768775316474.9756,1282.051282051282,,1,2,1768775316.4749756
1768775316482.788,1285.7142857142856,,1,2,1768775316.482788
1768775316490.6006,1287.9120879120878,,1,2,1768775316.4906006
1768775316498.413,1288.6446886446886,,1,2,1768775316.498413
1768775316506.2256,1292.3076923076922,,1,2,1768775316.5062256
1768775316514.038,1296.7032967032967,,1,2,1768775316.514038
1768775316521.8506,1300.3663003663005,,1,2,1768775316.5218506
1768775316529.663,1301.098901098901,,1,2,1768775316.529663
1768775316537.4756,1298.9010989010987,,1,2,1768775316.5374756
1768775316545.288,1295.970695970696,,1,2,1768775316.545288
1768775316553.1006,1293.7728937728937,,1,2,1768775316.5531006
1768775316560.913,1295.2380952380952,,1,2,1768775316.560913
1768775316568.7256,1302.5641025641023,,1,2,1768775316.5687256
1768775316576.538,1308.4249084249084,,1,2,1768775316.576538
1768775316584.3506,1315.7509157509155,,1,2,1768775316.5843506
1768775316592.163,1325.2747252747251,,1,2,1768775316.592163
1768775316599.9756,1336.263736263736,,1,2,1768775316.5999756
1768775316607.788,1347.985347985348,,1,2,1768775316.607788
1768775316615.6006,1358.241758241758,,1,2,1768775316.6156006
1768775316623.413,1362.6373626373625,,1,2,1768775316.623413
1768775316631.2256,1361.904761904762,,1,2,1768775316.6312256
1768775316639.038,1363.3699633699632,,1,2,1768775316.639038
1768775316646.8506,1365.5677655677655,,1,2,1768775316.6468506
1768775316654.663,1367.7655677655678,,1,2,1768775316.654663
1768775316662.4756,1368.4981684981683,,1,2,1768775316.6624756
1768775316670.288,1373.6263736263736,,1,2,1768775316.670288
1768775316678.1006,1383.150183150183,,1,2,1768775316.6781006
1768775316685.913,1390.4761904761904,,1,2,1768775316.685913
1768775316693.7256,1395.6043956043954,,1,2,1768775316.6937256
1768775316701.538,1396.3369963369962,,1,2,1768775316.701538
1768775316709.3506,1400.0,,1,2,1768775316.7093506
1768775316717.163,1405.8608058608058,,1,2,1768775316.717163
1768775316724.9756,1411.7216117216117,,1,2,1768775316.7249756
1768775316732.788,1416.117216117216,,1,2,1768775316.732788
1768775316740.6006,1418.3150183150185,,1,2,1768775316.7406006
1768775316748.413,1419.7802197802198,,1,2,1768775316.748413
1768775316756.2256,1419.047619047619,,1,2,1768775316.7562256
1768775316764.038,1418.3150183150185,,1,2,1768775316.764038
1768775316771.8506,1419.047619047619,,1,2,1768775316.7718506
1768775316779.663,1414.6520146520145,,1,2,1768775316.779663
1768775316787.4756,1408.7912087912086,,1,2,1768775316.7874756
1768775316795.288,1402.9304029304028,,1,2,1768775316.795288
1768775316803.1006,1398.5347985347985,,1,2,1768775316.8031006
1768775316810.913,1390.4761904761904,,1,2,1768775316.810913
1768775316818.7256,1385.3479853479853,,1,2,1768775316.8187256
1768775316826.538,1382.4175824175825,,1,2,1768775316.826538
1768775316834.3506,1377.2893772893772,,1,2,1768775316.8343506
1768775316842.163,1369.230769230769,,1,2,1768775316.842163
1768775316849.9756,1365.5677655677655,,1,2,1768775316.8499756
1768775316857.788,1361.1721611721612,,1,2,1768775316.857788
1768775316865.6006,1356.7765567765566,,1,2,1768775316.8656006
1768775316873.413,1358.241758241758,,1,2,1768775316.873413
1768775316881.2256,1364.102564102564,,1,2,1768775316.8812256
1768775316889.038,1370.6959706959706,,1,2,1768775316.889038
1768775316896.8506,1375.091575091575,,1,2,1768775316.8968506
1768775316904.663,1383.150183150183,,1,2,1768775316.904663
1768775316912.4756,1394.8717948717947,,1,2,1768775316.9124756
1768775316920.288,1401.4652014652013,,1,2,1768775316.920288
1768775316928.1006,1403.6630036630036,,1,2,1768775316.9281006
1768775316935.913,1400.7326007326003,,1,2,1768775316.935913
1768775316943.7256,1399.2673992673992,,1,2,1768775316.9437256
1768775316951.538,1397.8021978021975,,1,2,1768775316.951538
1768775316959.3506,1394.8717948717947,,1,2,1768775316.9593506
1768775316967.163,1392.6739926739926,,1,2,1768775316.967163
1768775316974.9756,1390.4761904761904,,1,2,1768775316.9749756
1768775316982.788,1387.5457875457876,,1,2,1768775316.982788
1768775316990.6006,1384.6153846153843,,1,2,1768775316.9906006
1768775316998.413,1379.4871794871794,,1,2,1768775316.998413
1768775317006.2256,1375.091575091575,,1,2,1768775317.0062256
1768775317014.038,1374.3589743589744,,1,2,1768775317.014038
1768775317021.8506,1372.8937728937728,,1,2,1768775317.0218506
1768775317029.663,1368.4981684981683,,1,2,1768775317.029663
1768775317037.4756,1366.3003663003662,,1,2,1768775317.0374756
1768775317045.288,1364.8351648351647,,1,2,1768775317.045288
1768775317053.1006,1358.241758241758,,1,2,1768775317.0531006
1768775317060.913,1353.113553113553,,1,2,1768775317.060913
1768775317068.7256,1345.054945054945,,1,2,1768775317.0687256
1768775317076.538,1332.6007326007325,,1,2,1768775317.076538
1768775317084.3506,1326.007326007326,,1,2,1768775317.0843506
1768775317092.163,1314.2857142857142,,1,2,1768775317.092163
1768775317099.9756,1309.89010989011,,1,2,1768775317.0999756
1768775317107.788,1307.6923076923076,,1,2,1768775317.107788
1768775317115.6006,1303.2967032967033,,1,2,1768775317.1156006
1768775317123.413,1304.7619047619046,,1,2,1768775317.123413
1768775317131.2256,1306.227106227106,,1,2,1768775317.1312256
1768775317139.038,1305.4945054945051,,1,2,1768775317.139038
1768775317146.8506,1309.89010989011,,1,2,1768775317.1468506
1768775317154.663,1315.018315018315,,1,2,1768775317.154663
1768775317162.4756,1317.9487179487178,,1,2,1768775317.1624756
1768775317170.288,1322.3443223443223,,1,2,1768775317.170288
1768775317178.1006,1326.007326007326,,1,2,1768775317.1781006
1768775317185.913,1326.739926739927,,1,2,1768775317.185913
1768775317193.7256,1325.2747252747251,,1,2,1768775317.1937256
1768775317201.538,1326.739926739927,,1,2,1768775317.201538
1768775317209.3506,1323.076923076923,,1,2,1768775317.2093506
1768775317217.163,1320.8791208791208,,1,2,1768775317.217163
1768775317224.9756,1318.6813186813183,,1,2,1768775317.2249756
1768775317232.788,1315.7509157509155,,1,2,1768775317.232788
1768775317240.6006,1320.14652014652,,1,2,1768775317.2406006
1768775317248.413,1320.8791208791208,,1,2,1768775317.248413
1768775317256.2256,1327.4725274725274,,1,2,1768775317.2562256
1768775317264.038,1327.4725274725274,,1,2,1768775317.264038
1768775317271.8506,1331.135531135531,,1,2,1768775317.2718506
1768775317279.663,1331.8681318681315,,1,2,1768775317.279663
1768775317287.4756,1331.135531135531,,1,2,1768775317.2874756
1768775317295.288,1333.3333333333333,,1,2,1768775317.295288
1768775317303.1006,1331.135531135531,,1,2,1768775317.3031006
1768775317310.913,1330.4029304029302,,1,2,1768775317.310913
1768775317318.7256,1322.3443223443223,,1,2,1768775317.3187256
1768775317326.538,1319.4139194139193,,1,2,1768775317.326538
1768775317334.3506,1313.5531135531137,,1,2,1768775317.3343506
1768775317342.163,1312.087912087912,,1,2,1768775317.342163
1768775317349.9756,1316.4835164835165,,1,2,1768775317.3499756
1768775317357.788,1315.7509157509155,,1,2,1768775317.357788
1768775317365.6006,1312.087912087912,,1,2,1768775317.3656006
1768775317373.413,1312.8205128205127,,1,2,1768775317.373413
1768775317381.2256,1309.89010989011,,1,2,1768775317.3812256
1768775317389.038,1312.8205128205127,,1,2,1768775317.389038
1768775317396.8506,1309.89010989011,,1,2,1768775317.3968506
1768775317404.663,1313.5531135531137,,1,2,1768775317.404663
1768775317412.4756,1312.8205128205127,,1,2,1768775317.4124756
1768775317420.288,1317.9487179487178,,1,2,1768775317.420288
1768775317428.1006,1320.14652014652,,1,2,1768775317.4281006
1768775317435.913,1323.076923076923,,1,2,1768775317.435913
1768775317443.7256,1327.4725274725274,,1,2,1768775317.4437256
1768775317451.538,1326.007326007326,,1,2,1768775317.451538
1768775317459.3506,1325.2747252747251,,1,2,1768775317.4593506
1768775317467.163,1320.8791208791208,,1,2,1768775317.467163
1768775317474.9756,1315.7509157509155,,1,2,1768775317.4749756
1768775317482.788,1310.6227106227104,,1,2,1768775317.482788
1768775317490.6006,1304.0293040293038,,1,2,1768775317.4906006
1768775317498.413,1296.7032967032967,,1,2,1768775317.498413
1768775317506.2256,1294.5054945054944,,1,2,1768775317.5062256
1768775317514.038,1287.179487179487,,1,2,1768775317.514038
1768775317521.8506,1285.7142857142856,,1,2,1768775317.5218506
1768775317529.663,1282.051282051282,,1,2,1768775317.529663
1768775317537.4756,1288.6446886446886,,1,2,1768775317.5374756
1768775317545.288,1290.8424908424909,,1,2,1768775317.545288
1768775317553.1006,1298.9010989010987,,1,2,1768775317.5531006
1768775317560.913,1304.7619047619046,,1,2,1768775317.560913
1768775317568.7256,1314.2857142857142,,1,2,1768775317.5687256
1768775317576.538,1322.3443223443223,,1,2,1768775317.576538
1768775317584.3506,1327.4725274725274,,1,2,1768775317.5843506
1768775317592.163,1335.5311355311355,,1,2,1768775317.592163
1768775317599.9756,1336.9963369963368,,1,2,1768775317.5999756
1768775317607.788,1339.92673992674,,1,2,1768775317.607788
1768775317615.6006,1337.7289377289376,,1,2,1768775317.6156006
1768775317623.413,1341.3919413919414,,1,2,1768775317.623413
1768775317631.2256,1343.5897435897434,,1,2,1768775317.6312256
1768775317639.038,1350.9157509157508,,1,2,1768775317.639038
1768775317646.8506,1355.311355311355,,1,2,1768775317.6468506
1768775317654.663,1364.8351648351647,,1,2,1768775317.654663
1768775317662.4756,1372.8937728937728,,1,2,1768775317.6624756
1768775317670.288,1383.8827838827838,,1,2,1768775317.670288
1768775317678.1006,1389.7435897435896,,1,2,1768775317.6781006
1768775317685.913,1398.5347985347985,,1,2,1768775317.685913
1768775317693.7256,1403.6630036630036,,1,2,1768775317.6937256
1768775317701.538,1408.058608058608,,1,2,1768775317.701538
1768775317709.3506,1411.7216117216117,,1,2,1768775317.7093506
1768775317717.163,1410.989010989011,,1,2,1768775317.717163
1768775317724.9756,1414.6520146520145,,1,2,1768775317.7249756
1768775317732.788,1413.1868131868132,,1,2,1768775317.732788
1768775317740.6006,1417.5824175824175,,1,2,1768775317.7406006
1768775317748.413,1416.117216117216,,1,2,1768775317.748413
1768775317756.2256,1415.3846153846152,,1,2,1768775317.7562256
1768775317764.038,1410.2564102564102,,1,2,1768775317.764038
1768775317771.8506,1409.5238095238094,,1,2,1768775317.7718506
1768775317779.663,1403.6630036630036,,1,2,1768775317.779663
1768775317787.4756,1401.4652014652013,,1,2,1768775317.7874756
1768775317795.288,1392.6739926739926,,1,2,1768775317.795288
1768775317803.1006,1386.8131868131868,,1,2,1768775317.8031006
1768775317810.913,1379.4871794871794,,1,2,1768775317.810913
1768775317818.7256,1377.2893772893772,,1,2,1768775317.8187256
1768775317826.538,1374.3589743589744,,1,2,1768775317.826538
1768775317834.3506,1372.8937728937728,,1,2,1768775317.8343506
1768775317842.163,1372.8937728937728,,1,2,1768775317.842163
1768775317849.9756,1373.6263736263736,,1,2,1768775317.8499756
1768775317857.788,1375.8241758241757,,1,2,1768775317.857788
1768775317865.6006,1382.4175824175825,,1,2,1768775317.8656006
1768775317873.413,1383.150183150183,,1,2,1768775317.873413
1768775317881.2256,1388.278388278388,,1,2,1768775317.8812256
1768775317889.038,1385.3479853479853,,1,2,1768775317.889038
1768775317896.8506,1385.3479853479853,,1,2,1768775317.8968506
1768775317904.663,1382.4175824175825,,1,2,1768775317.904663
1768775317912.4756,1379.4871794871794,,1,2,1768775317.9124756
1768775317920.288,1376.5567765567764,,1,2,1768775317.920288
1768775317928.1006,1378.021978021978,,1,2,1768775317.9281006
1768775317935.913,1374.3589743589744,,1,2,1768775317.935913
1768775317943.7256,1375.8241758241757,,1,2,1768775317.9437256
1768775317951.538,1378.021978021978,,1,2,1768775317.951538
1768775317959.3506,1375.091575091575,,1,2,1768775317.9593506
1768775317967.163,1377.2893772893772,,1,2,1768775317.967163
1768775317974.9756,1373.6263736263736,,1,2,1768775317.9749756
1768775317982.788,1375.091575091575,,1,2,1768775317.982788
1768775317990.6006,1378.021978021978,,1,2,1768775317.9906006
1768775317998.413,1377.2893772893772,,1,2,1768775317.998413
1768775318006.2256,1377.2893772893772,,1,2,1768775318.0062256
1768775318014.038,1380.2197802197802,,1,2,1768775318.014038
1768775318021.8506,1381.6849816849815,,1,2,1768775318.0218506
1768775318029.663,1379.4871794871794,,1,2,1768775318.029663
1768775318037.4756,1378.021978021978,,1,2,1768775318.0374756
1768775318045.288,1383.150183150183,,1,2,1768775318.045288
1768775318053.1006,1389.7435897435896,,1,2,1768775318.0531006
1768775318060.913,1387.5457875457876,,1,2,1768775318.060913
1768775318068.7256,1381.6849816849815,,1,2,1768775318.0687256
1768775318076.538,1374.3589743589744,,1,2,1768775318.076538
1768775318084.3506,1365.5677655677655,,1,2,1768775318.0843506
1768775318092.163,1358.974358974359,,1,2,1768775318.092163
1768775318099.9756,1357.5091575091574,,1,2,1768775318.0999756
1768775318107.788,1355.311355311355,,1,2,1768775318.107788
1768775318115.6006,1352.3809523809523,,1,2,1768775318.1156006
1768775318123.413,1352.3809523809523,,1,2,1768775318.123413
1768775318131.2256,1353.113553113553,,1,2,1768775318.1312256
1768775318139.038,1351.6483516483515,,1,2,1768775318.139038
1768775318146.8506,1351.6483516483515,,1,2,1768775318.1468506
1768775318154.663,1355.311355311355,,1,2,1768775318.154663
1768775318162.4756,1356.7765567765566,,1,2,1768775318.1624756
1768775318170.288,1355.311355311355,,1,2,1768775318.170288
1768775318178.1006,1353.113553113553,,1,2,1768775318.1781006
1768775318185.913,1352.3809523809523,,1,2,1768775318.185913
1768775318193.7256,1351.6483516483515,,1,2,1768775318.1937256
1768775318201.538,1354.5787545787546,,1,2,1768775318.201538
1768775318209.3506,1350.9157509157508,,1,2,1768775318.2093506
1768775318217.163,1347.985347985348,,1,2,1768775318.217163
1768775318224.9756,1346.5201465201465,,1,2,1768775318.2249756
1768775318232.788,1342.124542124542,,1,2,1768775318.232788
1768775318240.6006,1338.4615384615383,,1,2,1768775318.2406006
1768775318248.413,1338.4615384615383,,1,2,1768775318.248413
1768775318256.2256,1342.857142857143,,1,2,1768775318.2562256
1768775318264.038,1343.5897435897434,,1,2,1768775318.264038
1768775318271.8506,1340.6593406593406,,1,2,1768775318.2718506
1768775318279.663,1341.3919413919414,,1,2,1768775318.279663
1768775318287.4756,1341.3919413919414,,1,2,1768775318.2874756
1768775318295.288,1335.5311355311355,,1,2,1768775318.295288
1768775318303.1006,1333.3333333333333,,1,2,1768775318.3031006
1768775318310.913,1335.5311355311355,,1,2,1768775318.310913
1768775318318.7256,1339.194139194139,,1,2,1768775318.3187256
1768775318326.538,1341.3919413919414,,1,2,1768775318.326538
1768775318334.3506,1347.2527472527472,,1,2,1768775318.3343506
1768775318342.163,1353.113553113553,,1,2,1768775318.342163
1768775318349.9756,1355.311355311355,,1,2,1768775318.3499756
1768775318357.788,1356.7765567765566,,1,2,1768775318.357788
1768775318365.6006,1358.241758241758,,1,2,1768775318.3656006
1768775318373.413,1356.7765567765566,,1,2,1768775318.373413
1768775318381.2256,1349.4505494505493,,1,2,1768775318.3812256
1768775318389.038,1341.3919413919414,,1,2,1768775318.389038
1768775318396.8506,1339.92673992674,,1,2,1768775318.3968506
1768775318404.663,1339.194139194139,,1,2,1768775318.404663
1768775318412.4756,1331.8681318681315,,1,2,1768775318.4124756
1768775318420.288,1326.739926739927,,1,2,1768775318.420288
1768775318428.1006,1317.9487179487178,,1,2,1768775318.4281006
1768775318435.913,1312.8205128205127,,1,2,1768775318.435913
1768775318443.7256,1305.4945054945051,,1,2,1768775318.4437256
1768775318451.538,1302.5641025641023,,1,2,1768775318.451538
1768775318459.3506,1305.4945054945051,,1,2,1768775318.4593506
1768775318467.163,1306.227106227106,,1,2,1768775318.467163
1768775318474.9756,1309.1575091575091,,1,2,1768775318.4749756
1768775318482.788,1316.4835164835165,,1,2,1768775318.482788
1768775318490.6006,1321.6117216117216,,1,2,1768775318.4906006
1768775318498.413,1331.8681318681315,,1,2,1768775318.498413
1768775318506.2256,1343.5897435897434,,1,2,1768775318.5062256
1768775318514.038,1353.8461538461538,,1,2,1768775318.514038
1768775318521.8506,1369.230769230769,,1,2,1768775318.5218506
1768775318529.663,1380.2197802197802,,1,2,1768775318.529663
1768775318537.4756,1391.941391941392,,1,2,1768775318.5374756
1768775318545.288,1403.6630036630036,,1,2,1768775318.545288
1768775318553.1006,1414.6520146520145,,1,2,1768775318.5531006
1768775318560.913,1419.7802197802198,,1,2,1768775318.560913
1768775318568.7256,1423.4432234432234,,1,2,1768775318.5687256
1768775318576.538,1427.8388278388277,,1,2,1768775318.576538
1768775318584.3506,1429.3040293040292,,1,2,1768775318.5843506
1768775318592.163,1426.3736263736262,,1,2,1768775318.592163
1768775318599.9756,1425.6410256410256,,1,2,1768775318.5999756
1768775318607.788,1427.8388278388277,,1,2,1768775318.607788
1768775318615.6006,1424.9084249084249,,1,2,1768775318.6156006
1768775318623.413,1420.5128205128203,,1,2,1768775318.623413
1768775318631.2256,1418.3150183150185,,1,2,1768775318.6312256
1768775318639.038,1415.3846153846152,,1,2,1768775318.639038
1768775318646.8506,1412.4542124542124,,1,2,1768775318.6468506
1768775318654.663,1409.5238095238094,,1,2,1768775318.654663
1768775318662.4756,1413.9194139194135,,1,2,1768775318.6624756
1768775318670.288,1419.047619047619,,1,2,1768775318.670288
1768775318678.1006,1422.7106227106226,,1,2,1768775318.6781006
1768775318685.913,1424.175824175824,,1,2,1768775318.685913
1768775318693.7256,1422.7106227106226,,1,2,1768775318.6937256
1768775318701.538,1416.8498168498168,,1,2,1768775318.701538
1768775318709.3506,1408.058608058608,,1,2,1768775318.7093506
1768775318717.163,1400.7326007326003,,1,2,1768775318.717163
1768775318724.9756,1395.6043956043954,,1,2,1768775318.7249756
1768775318732.788,1389.7435897435896,,1,2,1768775318.732788
1768775318740.6006,1386.080586080586,,1,2,1768775318.7406006
1768775318748.413,1380.2197802197802,,1,2,1768775318.748413
1768775318756.2256,1379.4871794871794,,1,2,1768775318.7562256
1768775318764.038,1376.5567765567764,,1,2,1768775318.764038
1768775318771.8506,1379.4871794871794,,1,2,1768775318.7718506
1768775318779.663,1385.3479853479853,,1,2,1768775318.779663
1768775318787.4756,1389.7435897435896,,1,2,1768775318.7874756
1768775318795.288,1391.941391941392,,1,2,1768775318.795288
1768775318803.1006,1395.6043956043954,,1,2,1768775318.8031006
1768775318810.913,1397.8021978021975,,1,2,1768775318.810913
1768775318818.7256,1394.8717948717947,,1,2,1768775318.8187256
1768775318826.538,1395.6043956043954,,1,2,1768775318.826538
1768775318834.3506,1396.3369963369962,,1,2,1768775318.8343506
1768775318842.163,1395.6043956043954,,1,2,1768775318.842163
1768775318849.9756,1394.139194139194,,1,2,1768775318.8499756
1768775318857.788,1395.6043956043954,,1,2,1768775318.857788
1768775318865.6006,1394.8717948717947,,1,2,1768775318.8656006
1768775318873.413,1392.6739926739926,,1,2,1768775318.873413
1768775318881.2256,1389.0109890109889,,1,2,1768775318.8812256
1768775318889.038,1382.4175824175825,,1,2,1768775318.889038
1768775318896.8506,1374.3589743589744,,1,2,1768775318.8968506
1768775318904.663,1367.032967032967,,1,2,1768775318.904663
1768775318912.4756,1364.8351648351647,,1,2,1768775318.9124756
1768775318920.288,1364.8351648351647,,1,2,1768775318.920288
1768775318928.1006,1362.6373626373625,,1,2,1768775318.9281006
1768775318935.913,1354.5787545787546,,1,2,1768775318.935913
1768775318943.7256,1346.5201465201465,,1,2,1768775318.9437256
1768775318951.538,1342.857142857143,,1,2,1768775318.951538
1768775318959.3506,1340.6593406593406,,1,2,1768775318.9593506
1768775318967.163,1336.9963369963368,,1,2,1768775318.967163
1768775318974.9756,1333.3333333333333,,1,2,1768775318.9749756
1768775318982.788,1329.6703296703297,,1,2,1768775318.982788
1768775318990.6006,1327.4725274725274,,1,2,1768775318.9906006
1768775318998.413,1323.076923076923,,1,2,1768775318.998413
1768775319006.2256,1317.9487179487178,,1,2,1768775319.0062256
1768775319014.038,1315.7509157509155,,1,2,1768775319.014038
1768775319021.8506,1315.018315018315,,1,2,1768775319.0218506
1768775319029.663,1315.018315018315,,1,2,1768775319.029663
1768775319037.4756,1318.6813186813183,,1,2,1768775319.0374756
1768775319045.288,1324.5421245421244,,1,2,1768775319.045288
1768775319053.1006,1330.4029304029302,,1,2,1768775319.0531006
1768775319060.913,1331.8681318681315,,1,2,1768775319.060913
1768775319068.7256,1333.3333333333333,,1,2,1768775319.0687256
1768775319076.538,1336.9963369963368,,1,2,1768775319.076538
1768775319084.3506,1341.3919413919414,,1,2,1768775319.0843506
1768775319092.163,1345.054945054945,,1,2,1768775319.092163
1768775319099.9756,1345.7875457875457,,1,2,1768775319.0999756
1768775319107.788,1344.3223443223442,,1,2,1768775319.107788
1768775319115.6006,1336.263736263736,,1,2,1768775319.1156006
1768775319123.413,1326.739926739927,,1,2,1768775319.123413
1768775319131.2256,1316.4835164835165,,1,2,1768775319.1312256
1768775319139.038,1308.4249084249084,,1,2,1768775319.139038
1768775319146.8506,1301.098901098901,,1,2,1768775319.1468506
1768775319154.663,1297.4358974358977,,1,2,1768775319.154663
1768775319162.4756,1297.4358974358977,,1,2,1768775319.1624756
1768775319170.288,1298.168498168498,,1,2,1768775319.170288
1768775319178.1006,1301.098901098901,,1,2,1768775319.1781006
1768775319185.913,1304.7619047619046,,1,2,1768775319.185913
1768775319193.7256,1309.1575091575091,,1,2,1768775319.1937256
1768775319201.538,1310.6227106227104,,1,2,1768775319.201538
1768775319209.3506,1313.5531135531137,,1,2,1768775319.2093506
1768775319217.163,1317.9487179487178,,1,2,1768775319.217163
1768775319224.9756,1323.076923076923,,1,2,1768775319.2249756
1768775319232.788,1327.4725274725274,,1,2,1768775319.232788
1768775319240.6006,1326.739926739927,,1,2,1768775319.2406006
1768775319248.413,1320.14652014652,,1,2,1768775319.248413
1768775319256.2256,1312.8205128205127,,1,2,1768775319.2562256
1768775319264.038,1308.4249084249084,,1,2,1768775319.264038
1768775319271.8506,1305.4945054945051,,1,2,1768775319.2718506
1768775319279.663,1302.5641025641023,,1,2,1768775319.279663
1768775319287.4756,1299.6336996336995,,1,2,1768775319.2874756
1768775319295.288,1297.4358974358977,,1,2,1768775319.295288
1768775319303.1006,1294.5054945054944,,1,2,1768775319.3031006
1768775319310.913,1291.5750915750914,,0,-1,1768775319.310913
1768775319318.7256,1291.5750915750914,,0,-1,1768775319.3187256
1768775319326.538,1297.4358974358977,,0,-1,1768775319.326538
1768775319334.3506,1305.4945054945051,,0,-1,1768775319.3343506
1768775319342.163,1312.8205128205127,,0,-1,1768775319.342163
1768775319349.9756,1317.9487179487178,,0,-1,1768775319.3499756
1768775319357.788,1321.6117216117216,,0,-1,1768775319.357788
1768775319365.6006,1326.739926739927,,0,-1,1768775319.3656006
1768775319373.413,1333.3333333333333,,0,-1,1768775319.373413
1768775319381.2256,1339.194139194139,,0,-1,1768775319.3812256
1768775319389.038,1345.054945054945,,0,-1,1768775319.389038
1768775319396.8506,1352.3809523809523,,0,-1,1768775319.3968506
1768775319404.663,1361.904761904762,,0,-1,1768775319.404663
1768775319412.4756,1372.161172161172,,0,-1,1768775319.4124756
1768775319420.288,1380.2197802197802,,0,-1,1768775319.420288
1768775319428.1006,1386.080586080586,,0,-1,1768775319.4281006
1768775319435.913,1388.278388278388,,0,-1,1768775319.435913
1768775319443.7256,1390.4761904761904,,0,-1,1768775319.4437256
1768775319451.538,1392.6739926739926,,0,-1,1768775319.451538
1768775319459.3506,1395.6043956043954,,0,-1,1768775319.4593506
1768775319467.163,1402.9304029304028,,0,-1,1768775319.467163
1768775319474.9756,1410.989010989011,,0,-1,1768775319.4749756
1768775319482.788,1411.7216117216117,,0,-1,1768775319.482788
1768775319490.6006,1407.3260073260071,,0,-1,1768775319.4906006
1768775319498.413,1403.6630036630036,,0,-1,1768775319.498413
1768775319506.2256,1402.197802197802,,0,-1,1768775319.5062256
1768775319514.038,1400.7326007326003,,0,-1,1768775319.514038
1768775319521.8506,1400.0,,0,-1,1768775319.5218506
1768775319529.663,1399.2673992673992,,0,-1,1768775319.529663
1768775319537.4756,1403.6630036630036,,0,-1,1768775319.5374756
1768775319545.288,1402.197802197802,,0,-1,1768775319.545288
1768775319553.1006,1398.5347985347985,,0,-1,1768775319.5531006
1768775319560.913,1394.8717948717947,,0,-1,1768775319.560913
1768775319568.7256,1397.069597069597,,0,-1,1768775319.5687256
1768775319576.538,1400.0,,0,-1,1768775319.576538
1768775319584.3506,1404.3956043956043,,0,-1,1768775319.5843506
1768775319592.163,1406.5934065934066,,0,-1,1768775319.592163
1768775319599.9756,1404.3956043956043,,0,-1,1768775319.5999756
1768775319607.788,1400.0,,0,-1,1768775319.607788
1768775319615.6006,1397.8021978021975,,0,-1,1768775319.6156006
1768775319623.413,1397.8021978021975,,0,-1,1768775319.623413
1768775319631.2256,1397.8021978021975,,0,-1,1768775319.6312256
1768775319639.038,1398.5347985347985,,0,-1,1768775319.639038
1768775319646.8506,1397.069597069597,,0,-1,1768775319.6468506
1768775319654.663,1394.139194139194,,0,-1,1768775319.654663
1768775319662.4756,1387.5457875457876,,0,-1,1768775319.6624756
1768775319670.288,1380.952380952381,,0,-1,1768775319.670288
1768775319678.1006,1374.3589743589744,,0,-1,1768775319.6781006
1768775319685.913,1371.428571428571,,0,-1,1768775319.685913
1768775319693.7256,1373.6263736263736,,0,-1,1768775319.6937256
1768775319701.538,1377.2893772893772,,0,-1,1768775319.701538
1768775319709.3506,1378.7545787545787,,0,-1,1768775319.7093506
1768775319717.163,1381.6849816849815,,0,-1,1768775319.717163
1768775319724.9756,1384.6153846153843,,0,-1,1768775319.7249756
1768775319732.788,1385.3479853479853,,0,-1,1768775319.732788
1768775319740.6006,1387.5457875457876,,0,-1,1768775319.7406006
1768775319748.413,1393.4065934065934,,0,-1,1768775319.748413
1768775319756.2256,1397.069597069597,,0,-1,1768775319.7562256
1768775319764.038,1397.8021978021975,,0,-1,1768775319.764038
1768775319771.8506,1395.6043956043954,,0,-1,1768775319.7718506
1768775319779.663,1392.6739926739926,,0,-1,1768775319.779663
1768775319787.4756,1390.4761904761904,,0,-1,1768775319.7874756
1768775319795.288,1390.4761904761904,,0,-1,1768775319.795288
1768775319803.1006,1393.4065934065934,,0,-1,1768775319.8031006
1768775319810.913,1395.6043956043954,,0,-1,1768775319.810913
1768775319818.7256,1397.069597069597,,0,-1,1768775319.8187256
1768775319826.538,1394.139194139194,,0,-1,1768775319.826538
1768775319834.3506,1391.2087912087911,,0,-1,1768775319.8343506
1768775319842.163,1386.8131868131868,,0,-1,1768775319.842163
1768775319849.9756,1384.6153846153843,,0,-1,1768775319.8499756
1768775319857.788,1386.8131868131868,,0,-1,1768775319.857788
1768775319865.6006,1389.0109890109889,,0,-1,1768775319.8656006
1768775319873.413,1390.4761904761904,,0,-1,1768775319.873413
1768775319881.2256,1391.941391941392,,0,-1,1768775319.8812256
1768775319889.038,1391.941391941392,,0,-1,1768775319.889038
1768775319896.8506,1388.278388278388,,0,-1,1768775319.8968506
1768775319904.663,1383.8827838827838,,0,-1,1768775319.904663
1768775319912.4756,1380.952380952381,,0,-1,1768775319.9124756
1768775319920.288,1377.2893772893772,,0,-1,1768775319.920288
1768775319928.1006,1375.8241758241757,,0,-1,1768775319.9281006
1768775319935.913,1375.091575091575,,0,-1,1768775319.935913
1768775319943.7256,1372.8937728937728,,0,-1,1768775319.9437256
1768775319951.538,1369.9633699633698,,0,-1,1768775319.951538
1768775319959.3506,1367.032967032967,,0,-1,1768775319.9593506
1768775319967.163,1366.3003663003662,,0,-1,1768775319.967163
1768775319974.9756,1367.7655677655678,,0,-1,1768775319.9749756
1768775319982.788,1369.230769230769,,0,-1,1768775319.982788
1768775319990.6006,1372.161172161172,,0,-1,1768775319.9906006
1768775319998.413,1377.2893772893772,,0,-1,1768775319.998413
1768775320006.2256,1383.150183150183,,0,-1,1768775320.0062256
1768775320014.038,1389.0109890109889,,0,-1,1768775320.014038
1768775320021.8506,1391.941391941392,,0,-1,1768775320.0218506
1768775320029.663,1388.278388278388,,0,-1,1768775320.029663
1768775320037.4756,1382.4175824175825,,0,-1,1768775320.0374756
1768775320045.288,1376.5567765567764,,0,-1,1768775320.045288
1768775320053.1006,1372.161172161172,,0,-1,1768775320.0531006
1768775320060.913,1373.6263736263736,,0,-1,1768775320.060913
1768775320068.7256,1375.091575091575,,0,-1,1768775320.0687256
1768775320076.538,1377.2893772893772,,0,-1,1768775320.076538
1768775320084.3506,1378.7545787545787,,0,-1,1768775320.0843506
1768775320092.163,1376.5567765567764,,0,-1,1768775320.092163
1768775320099.9756,1372.8937728937728,,0,-1,1768775320.0999756
1768775320107.788,1368.4981684981683,,0,-1,1768775320.107788
1768775320115.6006,1365.5677655677655,,0,-1,1768775320.1156006
1768775320123.413,1363.3699633699632,,0,-1,1768775320.123413
1768775320131.2256,1359.7069597069597,,0,-1,1768775320.1312256
1768775320139.038,1352.3809523809523,,0,-1,1768775320.139038
1768775320146.8506,1345.054945054945,,0,-1,1768775320.1468506
1768775320154.663,1340.6593406593406,,0,-1,1768775320.154663
1768775320162.4756,1339.92673992674,,0,-1,1768775320.1624756
1768775320170.288,1336.9963369963368,,0,-1,1768775320.170288
1768775320178.1006,1338.4615384615383,,0,-1,1768775320.1781006
1768775320185.913,1336.9963369963368,,0,-1,1768775320.185913
1768775320193.7256,1336.263736263736,,0,-1,1768775320.1937256
1768775320201.538,1336.263736263736,,0,-1,1768775320.201538
1768775320209.3506,1336.9963369963368,,0,-1,1768775320.2093506
1768775320217.163,1342.124542124542,,0,-1,1768775320.217163
1768775320224.9756,1347.2527472527472,,0,-1,1768775320.2249756
1768775320232.788,1350.18315018315,,0,-1,1768775320.232788
1768775320240.6006,1351.6483516483515,,0,-1,1768775320.2406006
1768775320248.413,1353.113553113553,,0,-1,1768775320.248413
1768775320256.2256,1353.113553113553,,0,-1,1768775320.2562256
1768775320264.038,1355.311355311355,,0,-1,1768775320.264038
1768775320271.8506,1358.974358974359,,0,-1,1768775320.2718506
1768775320279.663,1365.5677655677655,,0,-1,1768775320.279663
1768775320287.4756,1375.8241758241757,,0,-1,1768775320.2874756
1768775320295.288,1387.5457875457876,,0,-1,1768775320.295288
1768775320303.1006,1400.7326007326003,,0,-1,1768775320.3031006
1768775320310.913,1410.989010989011,,0,-1,1768775320.310913
1768775320318.7256,1412.4542124542124,,0,-1,1768775320.3187256
1768775320326.538,1409.5238095238094,,0,-1,1768775320.326538
1768775320334.3506,1405.8608058608058,,0,-1,1768775320.3343506
1768775320342.163,1405.128205128205,,0,-1,1768775320.342163
1768775320349.9756,1405.8608058608058,,0,-1,1768775320.3499756
1768775320357.788,1411.7216117216117,,0,-1,1768775320.357788
1768775320365.6006,1417.5824175824175,,0,-1,1768775320.3656006
1768775320373.413,1424.9084249084249,,0,-1,1768775320.373413
1768775320381.2256,1432.9670329670328,,0,-1,1768775320.3812256
1768775320389.038,1443.956043956044,,0,-1,1768775320.389038
1768775320396.8506,1454.212454212454,,0,-1,1768775320.3968506
1768775320404.663,1463.003663003663,,0,-1,1768775320.404663
1768775320412.4756,1471.7948717948716,,0,-1,1768775320.4124756
1768775320420.288,1477.6556776556777,,0,-1,1768775320.420288
1768775320428.1006,1481.3186813186812,,0,-1,1768775320.4281006
1768775320435.913,1485.7142857142856,,0,-1,1768775320.435913
1768775320443.7256,1491.5750915750914,,0,-1,1768775320.4437256
1768775320451.538,1493.040293040293,,0,-1,1768775320.451538
1768775320459.3506,1492.3076923076922,,0,-1,1768775320.4593506
1768775320467.163,1489.3772893772891,,0,-1,1768775320.467163
1768775320474.9756,1483.5164835164835,,0,-1,1768775320.4749756
1768775320482.788,1475.4578754578754,,0,-1,1768775320.482788
1768775320490.6006,1471.062271062271,,0,-1,1768775320.4906006
1768775320498.413,1468.131868131868,,0,-1,1768775320.498413
1768775320506.2256,1461.5384615384614,,0,-1,1768775320.5062256
1768775320514.038,1455.6776556776556,,0,-1,1768775320.514038
1768775320521.8506,1451.2820512820513,,0,-1,1768775320.5218506
1768775320529.663,1449.8168498168498,,0,-1,1768775320.529663
1768775320537.4756,1452.014652014652,,0,-1,1768775320.5374756
1768775320545.288,1452.014652014652,,0,-1,1768775320.545288
1768775320553.1006,1451.2820512820513,,0,-1,1768775320.5531006
1768775320560.913,1449.8168498168498,,0,-1,1768775320.560913
1768775320568.7256,1448.3516483516482,,0,-1,1768775320.5687256
1768775320576.538,1448.3516483516482,,0,-1,1768775320.576538
1768775320584.3506,1449.8168498168498,,0,-1,1768775320.5843506
1768775320592.163,1449.084249084249,,0,-1,1768775320.592163
1768775320599.9756,1446.153846153846,,0,-1,1768775320.5999756
1768775320607.788,1442.4908424908424,,0,-1,1768775320.607788
1768775320615.6006,1435.164835164835,,0,-1,1768775320.6156006
1768775320623.413,1427.8388278388277,,0,-1,1768775320.623413
1768775320631.2256,1424.175824175824,,0,-1,1768775320.6312256
1768775320639.038,1421.9780219780218,,0,-1,1768775320.639038
1768775320646.8506,1424.175824175824,,0,-1,1768775320.6468506
1768775320654.663,1424.175824175824,,0,-1,1768775320.654663
1768775320662.4756,1422.7106227106226,,0,-1,1768775320.6624756
1768775320670.288,1420.5128205128203,,0,-1,1768775320.670288
1768775320678.1006,1416.8498168498168,,0,-1,1768775320.6781006
1768775320685.913,1412.4542124542124,,0,-1,1768775320.685913
1768775320693.7256,1411.7216117216117,,0,-1,1768775320.6937256
1768775320701.538,1415.3846153846152,,0,-1,1768775320.701538
1768775320709.3506,1419.7802197802198,,0,-1,1768775320.7093506
1768775320717.163,1423.4432234432234,,0,-1,1768775320.717163
1768775320724.9756,1427.106227106227,,0,-1,1768775320.7249756
1768775320732.788,1430.03663003663,,0,-1,1768775320.732788
1768775320740.6006,1432.9670329670328,,0,-1,1768775320.7406006
1768775320748.413,1431.5018315018317,,0,-1,1768775320.748413
1768775320756.2256,1423.4432234432234,,0,-1,1768775320.7562256
1768775320764.038,1415.3846153846152,,0,-1,1768775320.764038
1768775320771.8506,1406.5934065934066,,0,-1,1768775320.7718506
1768775320779.663,1402.9304029304028,,0,-1,1768775320.779663
1768775320787.4756,1400.0,,0,-1,1768775320.7874756
1768775320795.288,1402.9304029304028,,0,-1,1768775320.795288
1768775320803.1006,1405.8608058608058,,0,-1,1768775320.8031006
1768775320810.913,1405.128205128205,,0,-1,1768775320.810913
1768775320818.7256,1402.197802197802,,0,-1,1768775320.8187256
1768775320826.538,1402.197802197802,,0,-1,1768775320.826538
1768775320834.3506,1398.5347985347985,,0,-1,1768775320.8343506
1768775320842.163,1393.4065934065934,,0,-1,1768775320.842163
1768775320849.9756,1387.5457875457876,,0,-1,1768775320.8499756
1768775320857.788,1387.5457875457876,,0,-1,1768775320.857788
1768775320865.6006,1384.6153846153843,,0,-1,1768775320.8656006
1768775320873.413,1379.4871794871794,,0,-1,1768775320.873413
1768775320881.2256,1373.6263736263736,,0,-1,1768775320.8812256
1768775320889.038,1370.6959706959706,,0,-1,1768775320.889038
1768775320896.8506,1369.9633699633698,,0,-1,1768775320.8968506
1768775320904.663,1369.230769230769,,0,-1,1768775320.904663
1768775320912.4756,1369.9633699633698,,0,-1,1768775320.9124756
1768775320920.288,1367.032967032967,,0,-1,1768775320.920288
1768775320928.1006,1364.8351648351647,,0,-1,1768775320.9281006
1768775320935.913,1367.032967032967,,0,-1,1768775320.935913
1768775320943.7256,1364.8351648351647,,0,-1,1768775320.9437256
1768775320951.538,1363.3699633699632,,0,-1,1768775320.951538
1768775320959.3506,1367.7655677655678,,0,-1,1768775320.9593506
1768775320967.163,1376.5567765567764,,0,-1,1768775320.967163
1768775320974.9756,1385.3479853479853,,0,-1,1768775320.9749756
1768775320982.788,1388.278388278388,,0,-1,1768775320.982788
1768775320990.6006,1390.4761904761904,,0,-1,1768775320.9906006
1768775320998.413,1392.6739926739926,,0,-1,1768775320.998413
1768775321006.2256,1389.7435897435896,,0,-1,1768775321.0062256
1768775321014.038,1384.6153846153843,,0,-1,1768775321.014038
1768775321021.8506,1383.8827838827838,,0,-1,1768775321.0218506
1768775321029.663,1382.4175824175825,,0,-1,1768775321.029663
1768775321037.4756,1377.2893772893772,,0,-1,1768775321.0374756
1768775321045.288,1371.428571428571,,0,-1,1768775321.045288
1768775321053.1006,1372.8937728937728,,0,-1,1768775321.0531006
1768775321060.913,1372.161172161172,,0,-1,1768775321.060913
1768775321068.7256,1367.7655677655678,,0,-1,1768775321.0687256
1768775321076.538,1364.8351648351647,,0,-1,1768775321.076538
1768775321084.3506,1361.904761904762,,0,-1,1768775321.0843506
1768775321092.163,1358.974358974359,,0,-1,1768775321.092163
1768775321099.9756,1358.974358974359,,0,-1,1768775321.0999756
1768775321107.788,1360.4395604395604,,0,-1,1768775321.107788
1768775321115.6006,1362.6373626373625,,0,-1,1768775321.1156006
1768775321123.413,1362.6373626373625,,0,-1,1768775321.123413
1768775321131.2256,1361.1721611721612,,0,-1,1768775321.1312256
1768775321139.038,1361.904761904762,,0,-1,1768775321.139038
1768775321146.8506,1366.3003663003662,,0,-1,1768775321.1468506
1768775321154.663,1367.7655677655678,,0,-1,1768775321.154663
1768775321162.4756,1365.5677655677655,,0,-1,1768775321.1624756
1768775321170.288,1367.7655677655678,,0,-1,1768775321.170288
1768775321178.1006,1371.428571428571,,0,-1,1768775321.1781006
1768775321185.913,1372.161172161172,,0,-1,1768775321.185913
1768775321193.7256,1376.5567765567764,,0,-1,1768775321.1937256
1768775321201.538,1374.3589743589744,,0,-1,1768775321.201538
1768775321209.3506,1372.161172161172,,0,-1,1768775321.2093506
1768775321217.163,1363.3699633699632,,0,-1,1768775321.217163
1768775321224.9756,1355.311355311355,,0,-1,1768775321.2249756
1768775321232.788,1352.3809523809523,,0,-1,1768775321.232788
1768775321240.6006,1353.113553113553,,0,-1,1768775321.2406006
1768775321248.413,1352.3809523809523,,0,-1,1768775321.248413
1768775321256.2256,1357.5091575091574,,0,-1,1768775321.2562256
1768775321264.038,1363.3699633699632,,0,-1,1768775321.264038
1768775321271.8506,1371.428571428571,,0,-1,1768775321.2718506
1768775321279.663,1384.6153846153843,,0,-1,1768775321.279663
1768775321287.4756,1392.6739926739926,,0,-1,1768775321.2874756
1768775321295.288,1399.2673992673992,,0,-1,1768775321.295288
1768775321303.1006,1408.058608058608,,0,-1,1768775321.3031006
1768775321310.913,1413.9194139194135,,0,-1,1768775321.310913
1768775321318.7256,1421.245421245421,,0,-1,1768775321.3187256
1768775321326.538,1430.7692307692307,,0,-1,1768775321.326538
1768775321334.3506,1434.4322344322345,,0,-1,1768775321.3343506
1768775321342.163,1443.2234432234432,,0,-1,1768775321.342163
1768775321349.9756,1450.5494505494505,,0,-1,1768775321.3499756
1768775321357.788,1455.6776556776556,,0,-1,1768775321.357788
1768775321365.6006,1461.5384615384614,,0,-1,1768775321.3656006
1768775321373.413,1462.2710622710622,,0,-1,1768775321.373413
1768775321381.2256,1463.7362637362637,,0,-1,1768775321.3812256
1768775321389.038,1463.003663003663,,0,-1,1768775321.389038
1768775321396.8506,1468.131868131868,,0,-1,1768775321.3968506
1768775321404.663,1465.9340659340658,,0,-1,1768775321.404663
1768775321412.4756,1468.131868131868,,0,-1,1768775321.4124756
1768775321420.288,1465.201465201465,,0,-1,1768775321.420288
1768775321428.1006,1470.3296703296703,,0,-1,1768775321.4281006
1768775321435.913,1469.5970695970695,,0,-1,1768775321.435913
1768775321443.7256,1471.7948717948716,,0,-1,1768775321.4437256
1768775321451.538,1469.5970695970695,,0,-1,1768775321.451538
1768775321459.3506,1469.5970695970695,,0,-1,1768775321.4593506
1768775321467.163,1469.5970695970695,,0,-1,1768775321.467163
1768775321474.9756,1468.8644688644688,,0,-1,1768775321.4749756
1768775321482.788,1469.5970695970695,,0,-1,1768775321.482788
1768775321490.6006,1463.7362637362637,,0,-1,1768775321.4906006
1768775321498.413,1462.2710622710622,,0,-1,1768775321.498413
1768775321506.2256,1456.4102564102564,,0,-1,1768775321.5062256
1768775321514.038,1459.3406593406592,,0,-1,1768775321.514038
1768775321521.8506,1460.07326007326,,0,-1,1768775321.5218506
1768775321529.663,1463.7362637362637,,0,-1,1768775321.529663
1768775321537.4756,1463.7362637362637,,0,-1,1768775321.5374756
1768775321545.288,1467.3992673992673,,0,-1,1768775321.545288
1768775321553.1006,1465.201465201465,,0,-1,1768775321.5531006
1768775321560.913,1465.201465201465,,0,-1,1768775321.560913
1768775321568.7256,1460.805860805861,,0,-1,1768775321.5687256
1768775321576.538,1460.805860805861,,0,-1,1768775321.576538
1768775321584.3506,1463.003663003663,,0,-1,1768775321.5843506
1768775321592.163,1462.2710622710622,,0,-1,1768775321.592163
1768775321599.9756,1465.9340659340658,,0,-1,1768775321.5999756
1768775321607.788,1464.4688644688645,,0,-1,1768775321.607788
1768775321615.6006,1467.3992673992673,,0,-1,1768775321.6156006
1768775321623.413,1463.7362637362637,,0,-1,1768775321.623413
1768775321631.2256,1462.2710622710622,,0,-1,1768775321.6312256
1768775321639.038,1454.9450549450548,,0,-1,1768775321.639038
1768775321646.8506,1449.084249084249,,0,-1,1768775321.6468506
1768775321654.663,1441.7582417582416,,0,-1,1768775321.654663
1768775321662.4756,1438.8278388278388,,0,-1,1768775321.6624756
1768775321670.288,1438.8278388278388,,0,-1,1768775321.670288
1768775321678.1006,1435.8974358974358,,0,-1,1768775321.6781006
1768775321685.913,1438.095238095238,,0,-1,1768775321.685913
1768775321693.7256,1435.8974358974358,,0,-1,1768775321.6937256
1768775321701.538,1439.5604395604394,,0,-1,1768775321.701538
1768775321709.3506,1443.2234432234432,,0,-1,1768775321.7093506
1768775321717.163,1450.5494505494505,,0,-1,1768775321.717163
1768775321724.9756,1452.014652014652,,0,-1,1768775321.7249756
1768775321732.788,1453.479853479853,,0,-1,1768775321.732788
1768775321740.6006,1448.3516483516482,,0,-1,1768775321.7406006
1768775321748.413,1446.8864468864467,,0,-1,1768775321.748413
1768775321756.2256,1441.7582417582416,,0,-1,1768775321.7562256
1768775321764.038,1441.7582417582416,,0,-1,1768775321.764038
1768775321771.8506,1433.6996336996335,,0,-1,1768775321.7718506
1768775321779.663,1429.3040293040292,,0,-1,1768775321.779663
1768775321787.4756,1425.6410256410256,,0,-1,1768775321.7874756
1768775321795.288,1422.7106227106226,,0,-1,1768775321.795288
1768775321803.1006,1422.7106227106226,,0,-1,1768775321.8031006
1768775321810.913,1419.047619047619,,0,-1,1768775321.810913
1768775321818.7256,1420.5128205128203,,0,-1,1768775321.8187256
1768775321826.538,1418.3150183150185,,0,-1,1768775321.826538
1768775321834.3506,1420.5128205128203,,0,-1,1768775321.8343506
1768775321842.163,1419.047619047619,,0,-1,1768775321.842163
1768775321849.9756,1416.117216117216,,0,-1,1768775321.8499756
1768775321857.788,1413.1868131868132,,0,-1,1768775321.857788
1768775321865.6006,1405.128205128205,,0,-1,1768775321.8656006
1768775321873.413,1403.6630036630036,,0,-1,1768775321.873413
1768775321881.2256,1398.5347985347985,,0,-1,1768775321.8812256
1768775321889.038,1397.069597069597,,0,-1,1768775321.889038
1768775321896.8506,1394.8717948717947,,0,-1,1768775321.8968506
1768775321904.663,1389.7435897435896,,0,-1,1768775321.904663
1768775321912.4756,1386.080586080586,,0,-1,1768775321.9124756
1768775321920.288,1384.6153846153843,,0,-1,1768775321.920288
1768775321928.1006,1380.2197802197802,,0,-1,1768775321.9281006
1768775321935.913,1376.5567765567764,,0,-1,1768775321.935913
1768775321943.7256,1378.021978021978,,0,-1,1768775321.9437256
1768775321951.538,1383.8827838827838,,0,-1,1768775321.951538
1768775321959.3506,1391.941391941392,,0,-1,1768775321.9593506
1768775321967.163,1397.069597069597,,0,-1,1768775321.967163
1768775321974.9756,1402.197802197802,,0,-1,1768775321.9749756
1768775321982.788,1407.3260073260071,,0,-1,1768775321.982788
1768775321990.6006,1408.058608058608,,0,-1,1768775321.9906006
1768775321998.413,1408.058608058608,,0,-1,1768775321.998413
1768775322006.2256,1405.128205128205,,0,-1,1768775322.0062256
1768775322014.038,1400.0,,0,-1,1768775322.014038
1768775322021.8506,1391.941391941392,,0,-1,1768775322.0218506
1768775322029.663,1391.2087912087911,,0,-1,1768775322.029663
1768775322037.4756,1386.8131868131868,,0,-1,1768775322.0374756
1768775322045.288,1388.278388278388,,0,-1,1768775322.045288
1768775322053.1006,1383.150183150183,,0,-1,1768775322.0531006
1768775322060.913,1381.6849816849815,,0,-1,1768775322.060913
1768775322068.7256,1375.8241758241757,,0,-1,1768775322.0687256
1768775322076.538,1374.3589743589744,,0,-1,1768775322.076538
1768775322084.3506,1368.4981684981683,,0,-1,1768775322.0843506
1768775322092.163,1368.4981684981683,,0,-1,1768775322.092163
1768775322099.9756,1362.6373626373625,,0,-1,1768775322.0999756
1768775322107.788,1361.1721611721612,,0,-1,1768775322.107788
1768775322115.6006,1356.043956043956,,0,-1,1768775322.1156006
1768775322123.413,1358.241758241758,,0,-1,1768775322.123413
1768775322131.2256,1356.7765567765566,,0,-1,1768775322.1312256
1768775322139.038,1358.974358974359,,0,-1,1768775322.139038
1768775322146.8506,1357.5091575091574,,0,-1,1768775322.1468506
1768775322154.663,1355.311355311355,,0,-1,1768775322.154663
1768775322162.4756,1354.5787545787546,,0,-1,1768775322.1624756
1768775322170.288,1350.18315018315,,0,-1,1768775322.170288
1768775322178.1006,1350.9157509157508,,0,-1,1768775322.1781006
1768775322185.913,1346.5201465201465,,0,-1,1768775322.185913
1768775322193.7256,1347.985347985348,,0,-1,1768775322.1937256
1768775322201.538,1345.7875457875457,,0,-1,1768775322.201538
1768775322209.3506,1350.9157509157508,,0,-1,1768775322.2093506
1768775322217.163,1350.9157509157508,,0,-1,1768775322.217163
1768775322224.9756,1355.311355311355,,0,-1,1768775322.2249756
1768775322232.788,1353.113553113553,,0,-1,1768775322.232788
1768775322240.6006,1354.5787545787546,,0,-1,1768775322.2406006
1768775322248.413,1351.6483516483515,,0,-1,1768775322.248413
1768775322256.2256,1350.9157509157508,,0,-1,1768775322.2562256
1768775322264.038,1352.3809523809523,,0,-1,1768775322.264038
1768775322271.8506,1353.8461538461538,,0,-1,1768775322.2718506
1768775322279.663,1358.241758241758,,0,-1,1768775322.279663
1768775322287.4756,1361.904761904762,,0,-1,1768775322.2874756
1768775322295.288,1369.9633699633698,,0,-1,1768775322.295288
1768775322303.1006,1375.091575091575,,0,-1,1768775322.3031006
1768775322310.913,1382.4175824175825,,0,-1,1768775322.310913
1768775322318.7256,1388.278388278388,,0,-1,1768775322.3187256
1768775322326.538,1398.5347985347985,,0,-1,1768775322.326538
1768775322334.3506,1404.3956043956043,,0,-1,1768775322.3343506
1768775322342.163,1412.4542124542124,,0,-1,1768775322.342163
1768775322349.9756,1425.6410256410256,,0,-1,1768775322.3499756
1768775322357.788,1434.4322344322345,,0,-1,1768775322.357788
1768775322365.6006,1447.6190476190477,,0,-1,1768775322.3656006
1768775322373.413,1459.3406593406592,,0,-1,1768775322.373413
1768775322381.2256,1466.6666666666663,,0,-1,1768775322.3812256
1768775322389.038,1473.992673992674,,0,-1,1768775322.389038
1768775322396.8506,1475.4578754578754,,0,-1,1768775322.3968506
1768775322404.663,1479.8534798534797,,0,-1,1768775322.404663
1768775322412.4756,1482.7838827838827,,0,-1,1768775322.4124756
1768775322420.288,1488.6446886446886,,0,-1,1768775322.420288
1768775322428.1006,1495.2380952380952,,0,-1,1768775322.4281006
1768775322435.913,1497.4358974358972,,0,-1,1768775322.435913
1768775322443.7256,1504.0293040293038,,0,-1,1768775322.4437256
1768775322451.538,1505.4945054945051,,0,-1,1768775322.451538
1768775322459.3506,1506.227106227106,,0,-1,1768775322.4593506
1768775322467.163,1508.4249084249084,,0,-1,1768775322.467163
1768775322474.9756,1506.227106227106,,0,-1,1768775322.4749756
1768775322482.788,1502.5641025641023,,0,-1,1768775322.482788
1768775322490.6006,1502.5641025641023,,0,-1,1768775322.4906006
1768775322498.413,1501.098901098901,,0,-1,1768775322.498413
1768775322506.2256,1497.4358974358972,,0,-1,1768775322.5062256
1768775322514.038,1496.7032967032967,,0,-1,1768775322.514038
1768775322521.8506,1496.7032967032967,,0,-1,1768775322.5218506
1768775322529.663,1491.5750915750914,,0,-1,1768775322.529663
1768775322537.4756,1483.5164835164835,,0,-1,1768775322.5374756
1768775322545.288,1475.4578754578754,,0,-1,1768775322.545288
1768775322553.1006,1467.3992673992673,,0,-1,1768775322.5531006
1768775322560.913,1463.7362637362637,,0,-1,1768775322.560913
1768775322568.7256,1468.8644688644688,,0,-1,1768775322.5687256
1768775322576.538,1471.062271062271,,0,-1,1768775322.576538
1768775322584.3506,1474.7252747252746,,0,-1,1768775322.5843506
1768775322592.163,1479.8534798534797,,0,-1,1768775322.592163
1768775322599.9756,1481.3186813186812,,0,-1,1768775322.5999756
1768775322607.788,1480.5860805860805,,0,-1,1768775322.607788
1768775322615.6006,1481.3186813186812,,0,-1,1768775322.6156006
1768775322623.413,1476.923076923077,,0,-1,1768775322.623413
1768775322631.2256,1471.7948717948716,,0,-1,1768775322.6312256
1768775322639.038,1467.3992673992673,,0,-1,1768775322.639038
1768775322646.8506,1458.6080586080584,,0,-1,1768775322.6468506
1768775322654.663,1451.2820512820513,,0,-1,1768775322.654663
1768775322662.4756,1449.8168498168498,,0,-1,1768775322.6624756
1768775322670.288,1446.153846153846,,0,-1,1768775322.670288
1768775322678.1006,1438.8278388278388,,0,-1,1768775322.6781006
1768775322685.913,1433.6996336996335,,0,-1,1768775322.685913
1768775322693.7256,1429.3040293040292,,0,-1,1768775322.6937256
1768775322701.538,1421.245421245421,,1,3,1768775322.701538
1768775322709.3506,1414.6520146520145,,1,3,1768775322.7093506
1768775322717.163,1413.1868131868132,,1,3,1768775322.717163
1768775322724.9756,1410.989010989011,,1,3,1768775322.7249756
1768775322732.788,1413.1868131868132,,1,3,1768775322.732788
1768775322740.6006,1416.8498168498168,,1,3,1768775322.7406006
1768775322748.413,1421.245421245421,,1,3,1768775322.748413
1768775322756.2256,1425.6410256410256,,1,3,1768775322.7562256
1768775322764.038,1426.3736263736262,,1,3,1768775322.764038
1768775322771.8506,1429.3040293040292,,1,3,1768775322.7718506
1768775322779.663,1428.5714285714284,,1,3,1768775322.779663
1768775322787.4756,1428.5714285714284,,1,3,1768775322.7874756
1768775322795.288,1430.7692307692307,,1,3,1768775322.795288
1768775322803.1006,1432.9670329670328,,1,3,1768775322.8031006
1768775322810.913,1433.6996336996335,,1,3,1768775322.810913
1768775322818.7256,1427.8388278388277,,1,3,1768775322.8187256
1768775322826.538,1421.9780219780218,,1,3,1768775322.826538
1768775322834.3506,1419.047619047619,,1,3,1768775322.8343506
1768775322842.163,1412.4542124542124,,1,3,1768775322.842163
1768775322849.9756,1406.5934065934066,,1,3,1768775322.8499756
1768775322857.788,1405.8608058608058,,1,3,1768775322.857788
1768775322865.6006,1403.6630036630036,,1,3,1768775322.8656006
1768775322873.413,1396.3369963369962,,1,3,1768775322.873413
1768775322881.2256,1391.2087912087911,,1,3,1768775322.8812256
1768775322889.038,1389.0109890109889,,1,3,1768775322.889038
1768775322896.8506,1386.080586080586,,1,3,1768775322.8968506
1768775322904.663,1385.3479853479853,,1,3,1768775322.904663
1768775322912.4756,1390.4761904761904,,1,3,1768775322.9124756
1768775322920.288,1391.941391941392,,1,3,1768775322.920288
1768775322928.1006,1390.4761904761904,,1,3,1768775322.9281006
1768775322935.913,1391.2087912087911,,1,3,1768775322.935913
1768775322943.7256,1392.6739926739926,,1,3,1768775322.9437256
1768775322951.538,1391.2087912087911,,1,3,1768775322.951538
1768775322959.3506,1388.278388278388,,1,3,1768775322.9593506
1768775322967.163,1383.8827838827838,,1,3,1768775322.967163
1768775322974.9756,1383.8827838827838,,1,3,1768775322.9749756
1768775322982.788,1385.3479853479853,,1,3,1768775322.982788
1768775322990.6006,1389.0109890109889,,1,3,1768775322.9906006
1768775322998.413,1386.8131868131868,,1,3,1768775322.998413
1768775323006.2256,1378.021978021978,,1,3,1768775323.0062256
1768775323014.038,1375.091575091575,,1,3,1768775323.014038
1768775323021.8506,1375.8241758241757,,1,3,1768775323.0218506
1768775323029.663,1375.8241758241757,,1,3,1768775323.029663
1768775323037.4756,1373.6263736263736,,1,3,1768775323.0374756
1768775323045.288,1368.4981684981683,,1,3,1768775323.045288
1768775323053.1006,1360.4395604395604,,1,3,1768775323.0531006
1768775323060.913,1350.9157509157508,,1,3,1768775323.060913
1768775323068.7256,1342.124542124542,,1,3,1768775323.0687256
1768775323076.538,1337.7289377289376,,1,3,1768775323.076538
1768775323084.3506,1338.4615384615383,,1,3,1768775323.0843506
1768775323092.163,1342.857142857143,,1,3,1768775323.092163
1768775323099.9756,1348.7179487179487,,1,3,1768775323.0999756
1768775323107.788,1352.3809523809523,,1,3,1768775323.107788
1768775323115.6006,1352.3809523809523,,1,3,1768775323.1156006
1768775323123.413,1351.6483516483515,,1,3,1768775323.123413
1768775323131.2256,1350.18315018315,,1,3,1768775323.1312256
1768775323139.038,1350.9157509157508,,1,3,1768775323.139038
1768775323146.8506,1349.4505494505493,,1,3,1768775323.1468506
1768775323154.663,1347.2527472527472,,1,3,1768775323.154663
1768775323162.4756,1345.054945054945,,1,3,1768775323.1624756
1768775323170.288,1345.054945054945,,1,3,1768775323.170288
1768775323178.1006,1348.7179487179487,,1,3,1768775323.1781006
1768775323185.913,1350.9157509157508,,1,3,1768775323.185913
1768775323193.7256,1349.4505494505493,,1,3,1768775323.1937256
1768775323201.538,1353.113553113553,,1,3,1768775323.201538
1768775323209.3506,1350.9157509157508,,1,3,1768775323.2093506
1768775323217.163,1350.9157509157508,,1,3,1768775323.217163
1768775323224.9756,1350.9157509157508,,1,3,1768775323.2249756
1768775323232.788,1349.4505494505493,,1,3,1768775323.232788
1768775323240.6006,1349.4505494505493,,1,3,1768775323.2406006
1768775323248.413,1347.985347985348,,1,3,1768775323.248413
1768775323256.2256,1345.7875457875457,,1,3,1768775323.2562256
1768775323264.038,1342.124542124542,,1,3,1768775323.264038
1768775323271.8506,1338.4615384615383,,1,3,1768775323.2718506
1768775323279.663,1334.7985347985348,,1,3,1768775323.279663
1768775323287.4756,1329.6703296703297,,1,3,1768775323.2874756
1768775323295.288,1322.3443223443223,,1,3,1768775323.295288
1768775323303.1006,1321.6117216117216,,1,3,1768775323.3031006
1768775323310.913,1326.007326007326,,1,3,1768775323.310913
1768775323318.7256,1332.6007326007325,,1,3,1768775323.3187256
1768775323326.538,1342.124542124542,,1,3,1768775323.326538
1768775323334.3506,1359.7069597069597,,1,3,1768775323.3343506
1768775323342.163,1376.5567765567764,,1,3,1768775323.342163
1768775323349.9756,1394.139194139194,,1,3,1768775323.3499756
1768775323357.788,1408.7912087912086,,1,3,1768775323.357788
1768775323365.6006,1420.5128205128203,,1,3,1768775323.3656006
1768775323373.413,1432.9670329670328,,1,3,1768775323.373413
1768775323381.2256,1444.688644688645,,1,3,1768775323.3812256
1768775323389.038,1456.4102564102564,,1,3,1768775323.389038
1768775323396.8506,1468.8644688644688,,1,3,1768775323.3968506
1768775323404.663,1476.190476190476,,1,3,1768775323.404663
1768775323412.4756,1478.3882783882782,,1,3,1768775323.4124756
1768775323420.288,1476.190476190476,,1,3,1768775323.420288
1768775323428.1006,1470.3296703296703,,1,3,1768775323.4281006
1768775323435.913,1464.4688644688645,,1,3,1768775323.435913
1768775323443.7256,1463.7362637362637,,1,3,1768775323.4437256
1768775323451.538,1467.3992673992673,,1,3,1768775323.451538
1768775323459.3506,1471.062271062271,,1,3,1768775323.4593506
1768775323467.163,1475.4578754578754,,1,3,1768775323.467163
1768775323474.9756,1479.120879120879,,1,3,1768775323.4749756
1768775323482.788,1476.923076923077,,1,3,1768775323.482788
1768775323490.6006,1478.3882783882782,,1,3,1768775323.4906006
1768775323498.413,1480.5860805860805,,1,3,1768775323.498413
1768775323506.2256,1483.5164835164835,,1,3,1768775323.5062256
1768775323514.038,1484.2490842490845,,1,3,1768775323.514038
