Shimmer_6815_Timestamp_Unix_CAL,Shimmer_6815_PPG_A13_CAL,Unnamed: 2,inhale,inhale_id,epoch_sec
1768786797453.827,65.93406593406593,,0,-1,1768786797.453827
1768786797461.6394,162.63736263736263,,0,-1,1768786797.4616394
1768786797469.452,271.06227106227107,,0,-1,1768786797.469452
1768786797477.2644,382.4175824175824,,0,-1,1768786797.4772644
1768786797485.077,492.30769230769226,,0,-1,1768786797.485077
1768786797492.8894,600.7326007326006,,0,-1,1768786797.4928894
1768786797500.702,702.5641025641025,,0,-1,1768786797.500702
1768786797508.5144,789.010989010989,,0,-1,1768786797.5085144
1768786797516.327,868.131868131868,,0,-1,1768786797.516327
1768786797524.1394,935.5311355311354,,0,-1,1768786797.5241394
1768786797531.952,989.010989010989,,0,-1,1768786797.531952
1768786797539.7644,1034.4322344322345,,0,-1,1768786797.5397644
1768786797547.577,1071.062271062271,,0,-1,1768786797.547577
1768786797555.3894,1095.970695970696,,0,-1,1768786797.5553894
1768786797563.202,1115.018315018315,,0,-1,1768786797.563202
1768786797571.0144,1127.4725274725274,,0,-1,1768786797.5710144
1768786797578.827,1138.4615384615383,,0,-1,1768786797.578827
1768786797586.6394,1145.7875457875457,,0,-1,1768786797.5866394
1768786797594.452,1147.985347985348,,0,-1,1768786797.594452
1768786797602.2644,1148.7179487179487,,0,-1,1768786797.6022644
1768786797610.077,1147.2527472527472,,0,-1,1768786797.610077
1768786797617.8894,1142.857142857143,,0,-1,1768786797.6178894
1768786797625.702,1139.92673992674,,0,-1,1768786797.625702
1768786797633.5144,1137.7289377289376,,0,-1,1768786797.6335144
1768786797641.327,1134.065934065934,,0,-1,1768786797.641327
1768786797649.1394,1132.6007326007325,,0,-1,1768786797.6491394
1768786797656.952,1130.4029304029302,,0,-1,1768786797.656952
1768786797664.7644,1128.2051282051282,,0,-1,1768786797.6647644
1768786797672.577,1128.937728937729,,0,-1,1768786797.672577
1768786797680.3894,1130.4029304029302,,0,-1,1768786797.6803894
1768786797688.202,1136.2637362637363,,0,-1,1768786797.688202
1768786797696.0144,1144.3223443223442,,0,-1,1768786797.6960144
1768786797703.827,1152.3809523809523,,0,-1,1768786797.703827
1768786797711.6394,1158.974358974359,,0,-1,1768786797.7116394
1768786797719.452,1162.6373626373625,,0,-1,1768786797.719452
1768786797727.2644,1164.8351648351647,,0,-1,1768786797.7272644
1768786797735.077,1161.1721611721612,,0,-1,1768786797.735077
1768786797742.8894,1157.5091575091574,,0,-1,1768786797.7428894
1768786797750.702,1160.4395604395604,,0,-1,1768786797.750702
1768786797758.5144,1163.3699633699632,,0,-1,1768786797.7585144
1768786797766.327,1162.6373626373625,,0,-1,1768786797.766327
1768786797774.1394,1157.5091575091574,,0,-1,1768786797.7741394
1768786797781.952,1150.9157509157508,,0,-1,1768786797.781952
1768786797789.7644,1145.7875457875457,,0,-1,1768786797.7897644
1768786797797.577,1142.857142857143,,0,-1,1768786797.797577
1768786797805.3894,1142.124542124542,,0,-1,1768786797.8053894
1768786797813.202,1143.5897435897434,,0,-1,1768786797.813202
1768786797821.0144,1150.9157509157508,,0,-1,1768786797.8210144
1768786797828.827,1163.3699633699632,,0,-1,1768786797.828827
1768786797836.6394,1175.8241758241757,,0,-1,1768786797.8366394
1768786797844.452,1189.7435897435896,,0,-1,1768786797.844452
1768786797852.2644,1202.9304029304028,,0,-1,1768786797.8522644
1768786797860.077,1216.8498168498168,,0,-1,1768786797.860077
1768786797867.8894,1225.6410256410256,,0,-1,1768786797.8678894
1768786797875.702,1232.2344322344322,,0,-1,1768786797.875702
1768786797883.5144,1239.5604395604396,,0,-1,1768786797.8835144
1768786797891.327,1248.3516483516482,,0,-1,1768786797.891327
1768786797899.1394,1255.6776556776556,,0,-1,1768786797.8991394
1768786797906.952,1266.6666666666663,,0,-1,1768786797.906952
1768786797914.7644,1275.4578754578754,,0,-1,1768786797.9147644
1768786797922.577,1282.051282051282,,0,-1,1768786797.922577
1768786797930.3894,1288.6446886446886,,0,-1,1768786797.9303894
1768786797938.202,1294.5054945054944,,0,-1,1768786797.938202
1768786797946.0144,1299.6336996336995,,0,-1,1768786797.9460144
1768786797953.827,1302.5641025641023,,0,-1,1768786797.953827
1768786797961.6394,1306.227106227106,,0,-1,1768786797.9616394
1768786797969.452,1309.1575091575091,,0,-1,1768786797.969452
1768786797977.2644,1312.087912087912,,0,-1,1768786797.9772644
1768786797985.077,1317.216117216117,,0,-1,1768786797.985077
1768786797992.8894,1322.3443223443223,,0,-1,1768786797.9928894
1768786798000.702,1324.5421245421244,,0,-1,1768786798.000702
1768786798008.5144,1326.007326007326,,0,-1,1768786798.0085144
1768786798016.327,1320.8791208791208,,0,-1,1768786798.016327
1768786798024.1394,1312.087912087912,,0,-1,1768786798.0241394
1768786798031.952,1304.7619047619046,,0,-1,1768786798.031952
1768786798039.7644,1299.6336996336995,,0,-1,1768786798.0397644
1768786798047.577,1292.3076923076922,,0,-1,1768786798.047577
1768786798055.3894,1286.4468864468863,,0,-1,1768786798.0553894
1768786798063.202,1280.5860805860805,,0,-1,1768786798.063202
1768786798071.0144,1280.5860805860805,,0,-1,1768786798.0710144
1768786798078.827,1283.5164835164835,,0,-1,1768786798.078827
1768786798086.6394,1287.9120879120878,,0,-1,1768786798.0866394
1768786798094.452,1292.3076923076922,,0,-1,1768786798.094452
1768786798102.2644,1299.6336996336995,,0,-1,1768786798.1022644
1768786798110.077,1307.6923076923076,,0,-1,1768786798.110077
1768786798117.8894,1311.3553113553112,,0,-1,1768786798.1178894
1768786798125.702,1311.3553113553112,,0,-1,1768786798.125702
1768786798133.5144,1306.9597069597069,,0,-1,1768786798.1335144
1768786798141.327,1301.8315018315018,,0,-1,1768786798.141327
1768786798149.1394,1296.7032967032967,,0,-1,1768786798.1491394
1768786798156.952,1293.7728937728937,,0,-1,1768786798.156952
1768786798164.7644,1292.3076923076922,,0,-1,1768786798.1647644
1768786798172.577,1295.970695970696,,0,-1,1768786798.172577
1768786798180.3894,1301.098901098901,,0,-1,1768786798.1803894
1768786798188.202,1307.6923076923076,,0,-1,1768786798.188202
1768786798196.0144,1311.3553113553112,,0,-1,1768786798.1960144
1768786798203.827,1312.8205128205127,,0,-1,1768786798.203827
1768786798211.6394,1308.4249084249084,,0,-1,1768786798.2116394
1768786798219.452,1302.5641025641023,,0,-1,1768786798.219452
1768786798227.2644,1298.168498168498,,0,-1,1768786798.2272644
1768786798235.077,1293.7728937728937,,0,-1,1768786798.235077
1768786798242.8894,1289.3772893772891,,0,-1,1768786798.2428894
1768786798250.702,1287.179487179487,,0,-1,1768786798.250702
1768786798258.5144,1290.10989010989,,0,-1,1768786798.2585144
1768786798266.327,1292.3076923076922,,0,-1,1768786798.266327
1768786798274.1394,1295.970695970696,,0,-1,1768786798.2741394
1768786798281.952,1295.970695970696,,0,-1,1768786798.281952
1768786798289.7644,1296.7032967032967,,0,-1,1768786798.2897644
1768786798297.577,1292.3076923076922,,0,-1,1768786798.297577
1768786798305.3894,1285.7142857142856,,0,-1,1768786798.3053894
1768786798313.202,1283.5164835164835,,0,-1,1768786798.313202
1768786798321.0144,1284.9816849816848,,0,-1,1768786798.3210144
1768786798328.827,1284.2490842490845,,0,-1,1768786798.328827
1768786798336.6394,1283.5164835164835,,0,-1,1768786798.3366394
1768786798344.452,1279.8534798534797,,0,-1,1768786798.344452
1768786798352.2644,1274.7252747252746,,0,-1,1768786798.3522644
1768786798360.077,1274.7252747252746,,0,-1,1768786798.360077
1768786798367.8894,1273.992673992674,,0,-1,1768786798.3678894
1768786798375.702,1271.7948717948716,,0,-1,1768786798.375702
1768786798383.5144,1271.062271062271,,0,-1,1768786798.3835144
1768786798391.327,1274.7252747252746,,0,-1,1768786798.391327
1768786798399.1394,1276.190476190476,,0,-1,1768786798.3991394
1768786798406.952,1277.6556776556777,,0,-1,1768786798.406952
1768786798414.7644,1278.3882783882782,,0,-1,1768786798.4147644
1768786798422.577,1278.3882783882782,,0,-1,1768786798.422577
1768786798430.3894,1277.6556776556777,,0,-1,1768786798.4303894
1768786798438.202,1273.992673992674,,0,-1,1768786798.438202
1768786798446.0144,1268.131868131868,,0,-1,1768786798.4460144
1768786798453.827,1267.3992673992673,,0,-1,1768786798.453827
1768786798461.6394,1267.3992673992673,,0,-1,1768786798.4616394
1768786798469.452,1265.2014652014652,,1,1,1768786798.469452
1768786798477.2644,1262.2710622710622,,1,1,1768786798.4772644
1768786798485.077,1257.875457875458,,1,1,1768786798.485077
1768786798492.8894,1249.084249084249,,1,1,1768786798.4928894
1768786798500.702,1245.4212454212454,,1,1,1768786798.500702
1768786798508.5144,1245.4212454212454,,1,1,1768786798.5085144
1768786798516.327,1245.4212454212454,,1,1,1768786798.516327
1768786798524.1394,1246.153846153846,,1,1,1768786798.5241394
1768786798531.952,1251.2820512820513,,1,1,1768786798.531952
1768786798539.7644,1254.9450549450548,,1,1,1768786798.5397644
1768786798547.577,1254.212454212454,,1,1,1768786798.547577
1768786798555.3894,1255.6776556776556,,1,1,1768786798.5553894
1768786798563.202,1252.014652014652,,1,1,1768786798.563202
1768786798571.0144,1252.014652014652,,1,1,1768786798.5710144
1768786798578.827,1246.8864468864467,,1,1,1768786798.578827
1768786798586.6394,1240.29304029304,,1,1,1768786798.5866394
1768786798594.452,1235.164835164835,,1,1,1768786798.594452
1768786798602.2644,1223.4432234432234,,1,1,1768786798.6022644
1768786798610.077,1216.117216117216,,1,1,1768786798.610077
1768786798617.8894,1213.9194139194135,,1,1,1768786798.6178894
1768786798625.702,1210.989010989011,,1,1,1768786798.625702
1768786798633.5144,1215.3846153846152,,1,1,1768786798.6335144
1768786798641.327,1214.6520146520145,,1,1,1768786798.641327
1768786798649.1394,1216.117216117216,,1,1,1768786798.6491394
1768786798656.952,1213.9194139194135,,1,1,1768786798.656952
1768786798664.7644,1213.1868131868132,,1,1,1768786798.6647644
1768786798672.577,1213.1868131868132,,1,1,1768786798.672577
1768786798680.3894,1211.7216117216117,,1,1,1768786798.6803894
1768786798688.202,1212.4542124542124,,1,1,1768786798.688202
1768786798696.0144,1213.9194139194135,,1,1,1768786798.6960144
1768786798703.827,1213.1868131868132,,1,1,1768786798.703827
1768786798711.6394,1219.047619047619,,1,1,1768786798.7116394
1768786798719.452,1222.7106227106226,,1,1,1768786798.719452
1768786798727.2644,1230.03663003663,,1,1,1768786798.7272644
1768786798735.077,1231.5018315018317,,1,1,1768786798.735077
1768786798742.8894,1239.5604395604396,,1,1,1768786798.7428894
1768786798750.702,1242.4908424908424,,1,1,1768786798.750702
1768786798758.5144,1249.8168498168498,,1,1,1768786798.7585144
1768786798766.327,1250.5494505494505,,1,1,1768786798.766327
1768786798774.1394,1251.2820512820513,,1,1,1768786798.7741394
1768786798781.952,1249.084249084249,,1,1,1768786798.781952
1768786798789.7644,1246.153846153846,,1,1,1768786798.7897644
1768786798797.577,1242.4908424908424,,1,1,1768786798.797577
1768786798805.3894,1241.7582417582416,,1,1,1768786798.8053894
1768786798813.202,1233.6996336996335,,1,1,1768786798.813202
1768786798821.0144,1225.6410256410256,,1,1,1768786798.8210144
1768786798828.827,1216.117216117216,,1,1,1768786798.828827
1768786798836.6394,1208.058608058608,,1,1,1768786798.8366394
1768786798844.452,1203.6630036630036,,1,1,1768786798.844452
1768786798852.2644,1198.5347985347985,,1,1,1768786798.8522644
1768786798860.077,1201.4652014652013,,1,1,1768786798.860077
1768786798867.8894,1204.3956043956043,,1,1,1768786798.8678894
1768786798875.702,1216.117216117216,,1,1,1768786798.875702
1768786798883.5144,1227.8388278388277,,1,1,1768786798.8835144
1768786798891.327,1236.6300366300366,,1,1,1768786798.891327
1768786798899.1394,1245.4212454212454,,1,1,1768786798.8991394
1768786798906.952,1250.5494505494505,,1,1,1768786798.906952
1768786798914.7644,1262.2710622710622,,1,1,1768786798.9147644
1768786798922.577,1271.7948717948716,,1,1,1768786798.922577
1768786798930.3894,1284.9816849816848,,1,1,1768786798.9303894
1768786798938.202,1293.040293040293,,1,1,1768786798.938202
1768786798946.0144,1304.0293040293038,,1,1,1768786798.9460144
1768786798953.827,1312.087912087912,,1,1,1768786798.953827
1768786798961.6394,1320.14652014652,,1,1,1768786798.9616394
1768786798969.452,1327.4725274725274,,1,1,1768786798.969452
1768786798977.2644,1330.4029304029302,,1,1,1768786798.9772644
1768786798985.077,1336.263736263736,,1,1,1768786798.985077
1768786798992.8894,1340.6593406593406,,1,1,1768786798.9928894
1768786799000.702,1342.857142857143,,1,1,1768786799.000702
1768786799008.5144,1352.3809523809523,,1,1,1768786799.0085144
1768786799016.327,1363.3699633699632,,1,1,1768786799.016327
1768786799024.1394,1369.9633699633698,,1,1,1768786799.0241394
1768786799031.952,1375.091575091575,,1,1,1768786799.031952
1768786799039.7644,1375.091575091575,,1,1,1768786799.0397644
1768786799047.577,1370.6959706959706,,1,1,1768786799.047577
1768786799055.3894,1371.428571428571,,1,1,1768786799.0553894
1768786799063.202,1371.428571428571,,1,1,1768786799.063202
1768786799071.0144,1371.428571428571,,1,1,1768786799.0710144
1768786799078.827,1377.2893772893772,,1,1,1768786799.078827
1768786799086.6394,1380.952380952381,,1,1,1768786799.0866394
1768786799094.452,1384.6153846153843,,1,1,1768786799.094452
1768786799102.2644,1391.2087912087911,,1,1,1768786799.1022644
1768786799110.077,1395.6043956043954,,1,1,1768786799.110077
1768786799117.8894,1398.5347985347985,,1,1,1768786799.1178894
1768786799125.702,1404.3956043956043,,1,1,1768786799.125702
1768786799133.5144,1400.7326007326003,,1,1,1768786799.1335144
1768786799141.327,1395.6043956043954,,1,1,1768786799.141327
1768786799149.1394,1388.278388278388,,1,1,1768786799.1491394
1768786799156.952,1380.952380952381,,1,1,1768786799.156952
1768786799164.7644,1380.952380952381,,1,1,1768786799.1647644
1768786799172.577,1383.150183150183,,1,1,1768786799.172577
1768786799180.3894,1381.6849816849815,,1,1,1768786799.1803894
1768786799188.202,1375.8241758241757,,1,1,1768786799.188202
1768786799196.0144,1372.161172161172,,1,1,1768786799.1960144
1768786799203.827,1366.3003663003662,,1,1,1768786799.203827
1768786799211.6394,1361.1721611721612,,1,1,1768786799.2116394
1768786799219.452,1356.043956043956,,1,1,1768786799.219452
1768786799227.2644,1352.3809523809523,,1,1,1768786799.2272644
1768786799235.077,1350.9157509157508,,1,1,1768786799.235077
1768786799242.8894,1351.6483516483515,,1,1,1768786799.2428894
1768786799250.702,1353.113553113553,,1,1,1768786799.250702
1768786799258.5144,1351.6483516483515,,1,1,1768786799.2585144
1768786799266.327,1352.3809523809523,,1,1,1768786799.266327
1768786799274.1394,1355.311355311355,,1,1,1768786799.2741394
1768786799281.952,1357.5091575091574,,1,1,1768786799.281952
1768786799289.7644,1358.241758241758,,1,1,1768786799.2897644
1768786799297.577,1355.311355311355,,1,1,1768786799.297577
1768786799305.3894,1353.8461538461538,,1,1,1768786799.3053894
1768786799313.202,1352.3809523809523,,1,1,1768786799.313202
1768786799321.0144,1347.985347985348,,1,1,1768786799.3210144
1768786799328.827,1346.5201465201465,,1,1,1768786799.328827
1768786799336.6394,1350.9157509157508,,1,1,1768786799.3366394
1768786799344.452,1358.241758241758,,1,1,1768786799.344452
1768786799352.2644,1363.3699633699632,,1,1,1768786799.3522644
1768786799360.077,1369.230769230769,,1,1,1768786799.360077
1768786799367.8894,1377.2893772893772,,1,1,1768786799.3678894
1768786799375.702,1379.4871794871794,,1,1,1768786799.375702
1768786799383.5144,1375.8241758241757,,1,1,1768786799.3835144
1768786799391.327,1364.102564102564,,1,1,1768786799.391327
1768786799399.1394,1353.113553113553,,1,1,1768786799.3991394
1768786799406.952,1345.054945054945,,1,1,1768786799.406952
1768786799414.7644,1339.194139194139,,1,1,1768786799.4147644
1768786799422.577,1332.6007326007325,,1,1,1768786799.422577
1768786799430.3894,1322.3443223443223,,1,1,1768786799.4303894
1768786799438.202,1310.6227106227104,,1,1,1768786799.438202
1768786799446.0144,1303.2967032967033,,1,1,1768786799.4460144
1768786799453.827,1300.3663003663005,,1,1,1768786799.453827
1768786799461.6394,1297.4358974358977,,1,1,1768786799.4616394
1768786799469.452,1295.970695970696,,1,1,1768786799.469452
1768786799477.2644,1294.5054945054944,,1,1,1768786799.4772644
1768786799485.077,1292.3076923076922,,1,1,1768786799.485077
1768786799492.8894,1293.7728937728937,,1,1,1768786799.4928894
1768786799500.702,1298.168498168498,,1,1,1768786799.500702
1768786799508.5144,1304.0293040293038,,1,1,1768786799.5085144
1768786799516.327,1308.4249084249084,,1,1,1768786799.516327
1768786799524.1394,1311.3553113553112,,1,1,1768786799.5241394
1768786799531.952,1313.5531135531137,,1,1,1768786799.531952
1768786799539.7644,1315.018315018315,,1,1,1768786799.5397644
1768786799547.577,1313.5531135531137,,1,1,1768786799.547577
1768786799555.3894,1309.89010989011,,1,1,1768786799.5553894
1768786799563.202,1306.9597069597069,,1,1,1768786799.563202
1768786799571.0144,1304.0293040293038,,1,1,1768786799.5710144
1768786799578.827,1299.6336996336995,,1,1,1768786799.578827
1768786799586.6394,1295.2380952380952,,1,1,1768786799.5866394
1768786799594.452,1290.10989010989,,1,1,1768786799.594452
1768786799602.2644,1283.5164835164835,,1,1,1768786799.6022644
1768786799610.077,1283.5164835164835,,1,1,1768786799.610077
1768786799617.8894,1284.9816849816848,,1,1,1768786799.6178894
1768786799625.702,1287.179487179487,,1,1,1768786799.625702
1768786799633.5144,1292.3076923076922,,1,1,1768786799.6335144
1768786799641.327,1295.970695970696,,1,1,1768786799.641327
1768786799649.1394,1298.9010989010987,,1,1,1768786799.6491394
1768786799656.952,1301.8315018315018,,1,1,1768786799.656952
1768786799664.7644,1301.8315018315018,,1,1,1768786799.6647644
1768786799672.577,1298.9010989010987,,1,1,1768786799.672577
1768786799680.3894,1294.5054945054944,,1,1,1768786799.6803894
1768786799688.202,1291.5750915750914,,1,1,1768786799.688202
1768786799696.0144,1288.6446886446886,,1,1,1768786799.6960144
1768786799703.827,1286.4468864468863,,1,1,1768786799.703827
1768786799711.6394,1282.051282051282,,1,1,1768786799.7116394
1768786799719.452,1273.260073260073,,1,1,1768786799.719452
1768786799727.2644,1268.131868131868,,1,1,1768786799.7272644
1768786799735.077,1264.4688644688645,,1,1,1768786799.735077
1768786799742.8894,1263.7362637362637,,1,1,1768786799.7428894
1768786799750.702,1266.6666666666663,,1,1,1768786799.750702
1768786799758.5144,1270.3296703296703,,1,1,1768786799.7585144
1768786799766.327,1272.5274725274724,,1,1,1768786799.766327
1768786799774.1394,1272.5274725274724,,1,1,1768786799.7741394
1768786799781.952,1271.062271062271,,1,1,1768786799.781952
1768786799789.7644,1265.9340659340658,,1,1,1768786799.7897644
1768786799797.577,1260.805860805861,,1,1,1768786799.797577
1768786799805.3894,1256.4102564102564,,1,1,1768786799.8053894
1768786799813.202,1250.5494505494505,,1,1,1768786799.813202
1768786799821.0144,1246.8864468864467,,1,1,1768786799.8210144
1768786799828.827,1242.4908424908424,,1,1,1768786799.828827
1768786799836.6394,1240.29304029304,,1,1,1768786799.8366394
1768786799844.452,1241.0256410256409,,1,1,1768786799.844452
1768786799852.2644,1243.956043956044,,1,1,1768786799.8522644
1768786799860.077,1246.8864468864467,,1,1,1768786799.860077
1768786799867.8894,1251.2820512820513,,1,1,1768786799.8678894
1768786799875.702,1256.4102564102564,,1,1,1768786799.875702
1768786799883.5144,1262.2710622710622,,1,1,1768786799.8835144
1768786799891.327,1271.062271062271,,1,1,1768786799.891327
1768786799899.1394,1282.051282051282,,1,1,1768786799.8991394
1768786799906.952,1296.7032967032967,,1,1,1768786799.906952
1768786799914.7644,1314.2857142857142,,1,1,1768786799.9147644
1768786799922.577,1334.065934065934,,1,1,1768786799.922577
1768786799930.3894,1355.311355311355,,1,1,1768786799.9303894
1768786799938.202,1374.3589743589744,,1,1,1768786799.938202
1768786799946.0144,1391.2087912087911,,1,1,1768786799.9460144
1768786799953.827,1400.7326007326003,,1,1,1768786799.953827
1768786799961.6394,1405.8608058608058,,1,1,1768786799.9616394
1768786799969.452,1405.8608058608058,,1,1,1768786799.969452
1768786799977.2644,1399.2673992673992,,1,1,1768786799.9772644
1768786799985.077,1394.8717948717947,,1,1,1768786799.985077
1768786799992.8894,1395.6043956043954,,1,1,1768786799.9928894
1768786800000.702,1400.0,,1,1,1768786800.000702
1768786800008.5144,1408.058608058608,,1,1,1768786800.0085144
1768786800016.327,1416.8498168498168,,1,1,1768786800.016327
1768786800024.1394,1423.4432234432234,,1,1,1768786800.0241394
1768786800031.952,1428.5714285714284,,1,1,1768786800.031952
1768786800039.7644,1432.2344322344322,,1,1,1768786800.0397644
1768786800047.577,1435.164835164835,,1,1,1768786800.047577
1768786800055.3894,1436.6300366300366,,1,1,1768786800.0553894
1768786800063.202,1441.0256410256409,,1,1,1768786800.063202
1768786800071.0144,1439.5604395604394,,1,1,1768786800.0710144
1768786800078.827,1438.8278388278388,,1,1,1768786800.078827
1768786800086.6394,1438.8278388278388,,1,1,1768786800.0866394
1768786800094.452,1440.29304029304,,1,1,1768786800.094452
1768786800102.2644,1443.2234432234432,,1,1,1768786800.1022644
1768786800110.077,1446.153846153846,,1,1,1768786800.110077
1768786800117.8894,1449.8168498168498,,1,1,1768786800.1178894
1768786800125.702,1454.212454212454,,1,1,1768786800.125702
1768786800133.5144,1456.4102564102564,,1,1,1768786800.1335144
1768786800141.327,1455.6776556776556,,1,1,1768786800.141327
1768786800149.1394,1452.014652014652,,1,1,1768786800.1491394
1768786800156.952,1452.014652014652,,1,1,1768786800.156952
1768786800164.7644,1452.7472527472526,,1,1,1768786800.1647644
1768786800172.577,1449.8168498168498,,1,1,1768786800.172577
1768786800180.3894,1445.4212454212454,,1,1,1768786800.1803894
1768786800188.202,1438.8278388278388,,1,1,1768786800.188202
1768786800196.0144,1434.4322344322345,,1,1,1768786800.1960144
1768786800203.827,1427.106227106227,,0,-1,1768786800.203827
1768786800211.6394,1421.245421245421,,0,-1,1768786800.2116394
1768786800219.452,1421.245421245421,,0,-1,1768786800.219452
1768786800227.2644,1421.245421245421,,0,-1,1768786800.2272644
1768786800235.077,1424.9084249084249,,0,-1,1768786800.235077
1768786800242.8894,1425.6410256410256,,0,-1,1768786800.2428894
1768786800250.702,1431.5018315018317,,0,-1,1768786800.250702
1768786800258.5144,1430.7692307692307,,0,-1,1768786800.2585144
1768786800266.327,1433.6996336996335,,0,-1,1768786800.266327
1768786800274.1394,1432.2344322344322,,0,-1,1768786800.2741394
1768786800281.952,1430.03663003663,,0,-1,1768786800.281952
1768786800289.7644,1428.5714285714284,,0,-1,1768786800.2897644
1768786800297.577,1424.175824175824,,0,-1,1768786800.297577
1768786800305.3894,1413.9194139194135,,0,-1,1768786800.3053894
1768786800313.202,1405.8608058608058,,0,-1,1768786800.313202
1768786800321.0144,1402.197802197802,,0,-1,1768786800.3210144
1768786800328.827,1400.7326007326003,,0,-1,1768786800.328827
1768786800336.6394,1400.7326007326003,,0,-1,1768786800.3366394
1768786800344.452,1400.0,,0,-1,1768786800.344452
1768786800352.2644,1400.0,,0,-1,1768786800.3522644
1768786800360.077,1402.9304029304028,,0,-1,1768786800.360077
1768786800367.8894,1403.6630036630036,,0,-1,1768786800.3678894
1768786800375.702,1398.5347985347985,,0,-1,1768786800.375702
1768786800383.5144,1394.8717948717947,,0,-1,1768786800.3835144
1768786800391.327,1391.941391941392,,0,-1,1768786800.391327
1768786800399.1394,1386.8131868131868,,0,-1,1768786800.3991394
1768786800406.952,1382.4175824175825,,0,-1,1768786800.406952
1768786800414.7644,1379.4871794871794,,0,-1,1768786800.4147644
1768786800422.577,1369.9633699633698,,0,-1,1768786800.422577
1768786800430.3894,1366.3003663003662,,0,-1,1768786800.4303894
1768786800438.202,1361.904761904762,,0,-1,1768786800.438202
1768786800446.0144,1356.7765567765566,,0,-1,1768786800.4460144
1768786800453.827,1356.7765567765566,,0,-1,1768786800.453827
1768786800461.6394,1356.043956043956,,0,-1,1768786800.4616394
1768786800469.452,1354.5787545787546,,0,-1,1768786800.469452
1768786800477.2644,1358.241758241758,,0,-1,1768786800.4772644
1768786800485.077,1353.113553113553,,0,-1,1768786800.485077
1768786800492.8894,1345.7875457875457,,0,-1,1768786800.4928894
1768786800500.702,1341.3919413919414,,0,-1,1768786800.500702
1768786800508.5144,1343.5897435897434,,0,-1,1768786800.5085144
1768786800516.327,1346.5201465201465,,0,-1,1768786800.516327
1768786800524.1394,1347.2527472527472,,0,-1,1768786800.5241394
1768786800531.952,1348.7179487179487,,0,-1,1768786800.531952
1768786800539.7644,1354.5787545787546,,0,-1,1768786800.5397644
1768786800547.577,1355.311355311355,,0,-1,1768786800.547577
1768786800555.3894,1355.311355311355,,0,-1,1768786800.5553894
1768786800563.202,1359.7069597069597,,0,-1,1768786800.563202
1768786800571.0144,1358.241758241758,,0,-1,1768786800.5710144
1768786800578.827,1362.6373626373625,,0,-1,1768786800.578827
1768786800586.6394,1359.7069597069597,,0,-1,1768786800.5866394
1768786800594.452,1355.311355311355,,0,-1,1768786800.594452
1768786800602.2644,1344.3223443223442,,0,-1,1768786800.6022644
1768786800610.077,1331.8681318681315,,0,-1,1768786800.610077
1768786800617.8894,1328.937728937729,,0,-1,1768786800.6178894
1768786800625.702,1327.4725274725274,,0,-1,1768786800.625702
1768786800633.5144,1333.3333333333333,,0,-1,1768786800.6335144
1768786800641.327,1336.263736263736,,0,-1,1768786800.641327
1768786800649.1394,1340.6593406593406,,0,-1,1768786800.6491394
1768786800656.952,1347.985347985348,,0,-1,1768786800.656952
1768786800664.7644,1349.4505494505493,,0,-1,1768786800.6647644
1768786800672.577,1348.7179487179487,,0,-1,1768786800.672577
1768786800680.3894,1341.3919413919414,,0,-1,1768786800.6803894
1768786800688.202,1339.194139194139,,0,-1,1768786800.688202
1768786800696.0144,1334.065934065934,,0,-1,1768786800.6960144
1768786800703.827,1330.4029304029302,,0,-1,1768786800.703827
1768786800711.6394,1323.8095238095236,,0,-1,1768786800.7116394
1768786800719.452,1322.3443223443223,,0,-1,1768786800.719452
1768786800727.2644,1318.6813186813183,,0,-1,1768786800.7272644
1768786800735.077,1323.076923076923,,0,-1,1768786800.735077
1768786800742.8894,1321.6117216117216,,0,-1,1768786800.7428894
1768786800750.702,1320.8791208791208,,0,-1,1768786800.750702
1768786800758.5144,1314.2857142857142,,0,-1,1768786800.7585144
1768786800766.327,1315.018315018315,,0,-1,1768786800.766327
1768786800774.1394,1309.89010989011,,0,-1,1768786800.7741394
1768786800781.952,1308.4249084249084,,0,-1,1768786800.781952
1768786800789.7644,1309.89010989011,,0,-1,1768786800.7897644
1768786800797.577,1308.4249084249084,,0,-1,1768786800.797577
1768786800805.3894,1312.8205128205127,,0,-1,1768786800.8053894
1768786800813.202,1313.5531135531137,,0,-1,1768786800.813202
1768786800821.0144,1317.216117216117,,0,-1,1768786800.8210144
1768786800828.827,1325.2747252747251,,0,-1,1768786800.828827
1768786800836.6394,1331.135531135531,,0,-1,1768786800.8366394
1768786800844.452,1342.857142857143,,0,-1,1768786800.844452
1768786800852.2644,1353.113553113553,,0,-1,1768786800.8522644
1768786800860.077,1368.4981684981683,,0,-1,1768786800.860077
1768786800867.8894,1386.080586080586,,0,-1,1768786800.8678894
1768786800875.702,1401.4652014652013,,0,-1,1768786800.875702
1768786800883.5144,1419.7802197802198,,0,-1,1768786800.8835144
1768786800891.327,1434.4322344322345,,0,-1,1768786800.891327
1768786800899.1394,1452.014652014652,,0,-1,1768786800.8991394
1768786800906.952,1468.131868131868,,0,-1,1768786800.906952
1768786800914.7644,1480.5860805860805,,0,-1,1768786800.9147644
1768786800922.577,1491.5750915750914,,0,-1,1768786800.922577
1768786800930.3894,1498.9010989010987,,0,-1,1768786800.9303894
1768786800938.202,1507.6923076923076,,0,-1,1768786800.938202
1768786800946.0144,1511.3553113553112,,0,-1,1768786800.9460144
1768786800953.827,1510.6227106227104,,0,-1,1768786800.953827
1768786800961.6394,1512.087912087912,,0,-1,1768786800.9616394
1768786800969.452,1510.6227106227104,,0,-1,1768786800.969452
1768786800977.2644,1508.4249084249084,,0,-1,1768786800.9772644
1768786800985.077,1514.2857142857142,,0,-1,1768786800.985077
1768786800992.8894,1522.3443223443223,,0,-1,1768786800.9928894
1768786801000.702,1532.6007326007325,,0,-1,1768786801.000702
1768786801008.5144,1540.6593406593406,,0,-1,1768786801.0085144
1768786801016.327,1539.92673992674,,0,-1,1768786801.016327
1768786801024.1394,1543.5897435897434,,0,-1,1768786801.0241394
1768786801031.952,1542.124542124542,,0,-1,1768786801.031952
1768786801039.7644,1547.2527472527472,,0,-1,1768786801.0397644
1768786801047.577,1551.6483516483515,,0,-1,1768786801.047577
1768786801055.3894,1547.985347985348,,0,-1,1768786801.0553894
1768786801063.202,1544.3223443223442,,0,-1,1768786801.063202
1768786801071.0144,1534.065934065934,,0,-1,1768786801.0710144
1768786801078.827,1523.8095238095236,,0,-1,1768786801.078827
1768786801086.6394,1517.9487179487178,,0,-1,1768786801.0866394
1768786801094.452,1509.1575091575091,,0,-1,1768786801.094452
1768786801102.2644,1504.7619047619046,,0,-1,1768786801.1022644
1768786801110.077,1504.7619047619046,,0,-1,1768786801.110077
1768786801117.8894,1497.4358974358972,,0,-1,1768786801.1178894
1768786801125.702,1493.040293040293,,0,-1,1768786801.125702
1768786801133.5144,1485.7142857142856,,0,-1,1768786801.1335144
1768786801141.327,1476.923076923077,,0,-1,1768786801.141327
1768786801149.1394,1473.260073260073,,0,-1,1768786801.1491394
1768786801156.952,1472.5274725274724,,0,-1,1768786801.156952
1768786801164.7644,1469.5970695970695,,0,-1,1768786801.1647644
1768786801172.577,1468.8644688644688,,0,-1,1768786801.172577
1768786801180.3894,1462.2710622710622,,0,-1,1768786801.1803894
1768786801188.202,1461.5384615384614,,0,-1,1768786801.188202
1768786801196.0144,1459.3406593406592,,0,-1,1768786801.1960144
1768786801203.827,1462.2710622710622,,0,-1,1768786801.203827
1768786801211.6394,1467.3992673992673,,0,-1,1768786801.2116394
1768786801219.452,1464.4688644688645,,0,-1,1768786801.219452
1768786801227.2644,1463.003663003663,,0,-1,1768786801.2272644
1768786801235.077,1453.479853479853,,0,-1,1768786801.235077
1768786801242.8894,1445.4212454212454,,0,-1,1768786801.2428894
1768786801250.702,1440.29304029304,,0,-1,1768786801.250702
1768786801258.5144,1434.4322344322345,,0,-1,1768786801.2585144
1768786801266.327,1428.5714285714284,,0,-1,1768786801.266327
1768786801274.1394,1427.106227106227,,0,-1,1768786801.2741394
1768786801281.952,1426.3736263736262,,0,-1,1768786801.281952
1768786801289.7644,1421.9780219780218,,0,-1,1768786801.2897644
1768786801297.577,1418.3150183150185,,0,-1,1768786801.297577
1768786801305.3894,1416.8498168498168,,0,-1,1768786801.3053894
1768786801313.202,1415.3846153846152,,0,-1,1768786801.313202
1768786801321.0144,1411.7216117216117,,0,-1,1768786801.3210144
1768786801328.827,1408.058608058608,,0,-1,1768786801.328827
1768786801336.6394,1404.3956043956043,,0,-1,1768786801.3366394
1768786801344.452,1401.4652014652013,,0,-1,1768786801.344452
1768786801352.2644,1397.8021978021975,,0,-1,1768786801.3522644
1768786801360.077,1396.3369963369962,,0,-1,1768786801.360077
1768786801367.8894,1391.2087912087911,,0,-1,1768786801.3678894
1768786801375.702,1388.278388278388,,0,-1,1768786801.375702
1768786801383.5144,1386.080586080586,,0,-1,1768786801.3835144
1768786801391.327,1383.150183150183,,0,-1,1768786801.391327
1768786801399.1394,1378.7545787545787,,0,-1,1768786801.3991394
1768786801406.952,1372.8937728937728,,0,-1,1768786801.406952
1768786801414.7644,1368.4981684981683,,0,-1,1768786801.4147644
1768786801422.577,1367.7655677655678,,0,-1,1768786801.422577
1768786801430.3894,1369.9633699633698,,0,-1,1768786801.4303894
1768786801438.202,1370.6959706959706,,0,-1,1768786801.438202
1768786801446.0144,1371.428571428571,,0,-1,1768786801.4460144
1768786801453.827,1373.6263736263736,,0,-1,1768786801.453827
1768786801461.6394,1377.2893772893772,,0,-1,1768786801.4616394
1768786801469.452,1379.4871794871794,,0,-1,1768786801.469452
1768786801477.2644,1372.161172161172,,0,-1,1768786801.4772644
1768786801485.077,1364.102564102564,,0,-1,1768786801.485077
1768786801492.8894,1358.241758241758,,0,-1,1768786801.4928894
1768786801500.702,1353.8461538461538,,0,-1,1768786801.500702
1768786801508.5144,1347.985347985348,,0,-1,1768786801.5085144
1768786801516.327,1345.054945054945,,0,-1,1768786801.516327
1768786801524.1394,1342.124542124542,,0,-1,1768786801.5241394
1768786801531.952,1339.194139194139,,0,-1,1768786801.531952
1768786801539.7644,1333.3333333333333,,0,-1,1768786801.5397644
1768786801547.577,1329.6703296703297,,0,-1,1768786801.547577
1768786801555.3894,1325.2747252747251,,0,-1,1768786801.5553894
1768786801563.202,1321.6117216117216,,0,-1,1768786801.563202
1768786801571.0144,1318.6813186813183,,0,-1,1768786801.5710144
1768786801578.827,1315.018315018315,,0,-1,1768786801.578827
1768786801586.6394,1315.018315018315,,0,-1,1768786801.5866394
1768786801594.452,1317.9487179487178,,0,-1,1768786801.594452
1768786801602.2644,1322.3443223443223,,0,-1,1768786801.6022644
1768786801610.077,1324.5421245421244,,0,-1,1768786801.610077
1768786801617.8894,1323.076923076923,,0,-1,1768786801.6178894
1768786801625.702,1323.8095238095236,,0,-1,1768786801.625702
1768786801633.5144,1323.076923076923,,0,-1,1768786801.6335144
1768786801641.327,1324.5421245421244,,0,-1,1768786801.641327
1768786801649.1394,1324.5421245421244,,0,-1,1768786801.6491394
1768786801656.952,1326.007326007326,,0,-1,1768786801.656952
1768786801664.7644,1326.739926739927,,0,-1,1768786801.6647644
1768786801672.577,1326.007326007326,,0,-1,1768786801.672577
1768786801680.3894,1325.2747252747251,,0,-1,1768786801.6803894
1768786801688.202,1322.3443223443223,,0,-1,1768786801.688202
1768786801696.0144,1319.4139194139193,,0,-1,1768786801.6960144
1768786801703.827,1317.9487179487178,,0,-1,1768786801.703827
1768786801711.6394,1315.018315018315,,0,-1,1768786801.7116394
1768786801719.452,1311.3553113553112,,0,-1,1768786801.719452
1768786801727.2644,1307.6923076923076,,0,-1,1768786801.7272644
1768786801735.077,1306.9597069597069,,0,-1,1768786801.735077
1768786801742.8894,1303.2967032967033,,0,-1,1768786801.7428894
1768786801750.702,1295.2380952380952,,0,-1,1768786801.750702
1768786801758.5144,1290.10989010989,,0,-1,1768786801.7585144
1768786801766.327,1290.10989010989,,0,-1,1768786801.766327
1768786801774.1394,1294.5054945054944,,0,-1,1768786801.7741394
1768786801781.952,1300.3663003663005,,0,-1,1768786801.781952
1768786801789.7644,1308.4249084249084,,0,-1,1768786801.7897644
1768786801797.577,1314.2857142857142,,0,-1,1768786801.797577
1768786801805.3894,1319.4139194139193,,0,-1,1768786801.8053894
1768786801813.202,1327.4725274725274,,0,-1,1768786801.813202
1768786801821.0144,1339.92673992674,,0,-1,1768786801.8210144
1768786801828.827,1357.5091575091574,,0,-1,1768786801.828827
1768786801836.6394,1376.5567765567764,,0,-1,1768786801.8366394
1768786801844.452,1397.8021978021975,,0,-1,1768786801.844452
1768786801852.2644,1416.117216117216,,0,-1,1768786801.8522644
1768786801860.077,1433.6996336996335,,0,-1,1768786801.860077
1768786801867.8894,1450.5494505494505,,0,-1,1768786801.8678894
1768786801875.702,1468.131868131868,,0,-1,1768786801.875702
1768786801883.5144,1482.7838827838827,,0,-1,1768786801.8835144
1768786801891.327,1496.7032967032967,,0,-1,1768786801.891327
1768786801899.1394,1509.1575091575091,,0,-1,1768786801.8991394
1768786801906.952,1520.14652014652,,0,-1,1768786801.906952
1768786801914.7644,1527.4725274725274,,0,-1,1768786801.9147644
1768786801922.577,1535.5311355311355,,0,-1,1768786801.922577
1768786801930.3894,1545.7875457875457,,0,-1,1768786801.9303894
1768786801938.202,1556.7765567765566,,0,-1,1768786801.938202
1768786801946.0144,1566.3003663003662,,0,-1,1768786801.9460144
1768786801953.827,1574.3589743589744,,0,-1,1768786801.953827
1768786801961.6394,1582.4175824175825,,0,-1,1768786801.9616394
1768786801969.452,1584.6153846153843,,0,-1,1768786801.969452
1768786801977.2644,1582.4175824175825,,0,-1,1768786801.9772644
1768786801985.077,1581.6849816849815,,0,-1,1768786801.985077
1768786801992.8894,1581.6849816849815,,0,-1,1768786801.9928894
1768786802000.702,1582.4175824175825,,0,-1,1768786802.000702
1768786802008.5144,1581.6849816849815,,0,-1,1768786802.0085144
1768786802016.327,1578.7545787545787,,0,-1,1768786802.016327
1768786802024.1394,1574.3589743589744,,0,-1,1768786802.0241394
1768786802031.952,1569.230769230769,,0,-1,1768786802.031952
1768786802039.7644,1562.6373626373625,,0,-1,1768786802.0397644
1768786802047.577,1556.043956043956,,0,-1,1768786802.047577
1768786802055.3894,1547.985347985348,,0,-1,1768786802.0553894
1768786802063.202,1539.92673992674,,0,-1,1768786802.063202
1768786802071.0144,1531.135531135531,,0,-1,1768786802.0710144
1768786802078.827,1520.14652014652,,0,-1,1768786802.078827
1768786802086.6394,1509.1575091575091,,0,-1,1768786802.0866394
1768786802094.452,1502.5641025641023,,0,-1,1768786802.094452
1768786802102.2644,1501.098901098901,,0,-1,1768786802.1022644
1768786802110.077,1498.168498168498,,0,-1,1768786802.110077
1768786802117.8894,1494.5054945054944,,0,-1,1768786802.1178894
1768786802125.702,1488.6446886446886,,0,-1,1768786802.125702
1768786802133.5144,1483.5164835164835,,0,-1,1768786802.1335144
1768786802141.327,1478.3882783882782,,0,-1,1768786802.141327
1768786802149.1394,1472.5274725274724,,0,-1,1768786802.1491394
1768786802156.952,1464.4688644688645,,0,-1,1768786802.156952
1768786802164.7644,1454.9450549450548,,0,-1,1768786802.1647644
1768786802172.577,1446.8864468864467,,0,-1,1768786802.172577
1768786802180.3894,1439.5604395604394,,0,-1,1768786802.1803894
1768786802188.202,1432.9670329670328,,0,-1,1768786802.188202
1768786802196.0144,1430.7692307692307,,0,-1,1768786802.1960144
1768786802203.827,1429.3040293040292,,0,-1,1768786802.203827
1768786802211.6394,1431.5018315018317,,0,-1,1768786802.2116394
1768786802219.452,1435.164835164835,,0,-1,1768786802.219452
1768786802227.2644,1438.8278388278388,,0,-1,1768786802.2272644
1768786802235.077,1437.362637362637,,0,-1,1768786802.235077
1768786802242.8894,1430.7692307692307,,0,-1,1768786802.2428894
1768786802250.702,1422.7106227106226,,0,-1,1768786802.250702
1768786802258.5144,1413.1868131868132,,0,-1,1768786802.2585144
1768786802266.327,1402.9304029304028,,0,-1,1768786802.266327
1768786802274.1394,1395.6043956043954,,0,-1,1768786802.2741394
1768786802281.952,1389.7435897435896,,0,-1,1768786802.281952
1768786802289.7644,1388.278388278388,,0,-1,1768786802.2897644
1768786802297.577,1394.139194139194,,0,-1,1768786802.297577
1768786802305.3894,1400.7326007326003,,0,-1,1768786802.3053894
1768786802313.202,1406.5934065934066,,0,-1,1768786802.313202
1768786802321.0144,1409.5238095238094,,0,-1,1768786802.3210144
1768786802328.827,1411.7216117216117,,0,-1,1768786802.328827
1768786802336.6394,1413.9194139194135,,0,-1,1768786802.3366394
1768786802344.452,1411.7216117216117,,0,-1,1768786802.344452
1768786802352.2644,1407.3260073260071,,0,-1,1768786802.3522644
1768786802360.077,1402.197802197802,,0,-1,1768786802.360077
1768786802367.8894,1401.4652014652013,,0,-1,1768786802.3678894
1768786802375.702,1407.3260073260071,,0,-1,1768786802.375702
1768786802383.5144,1408.058608058608,,0,-1,1768786802.3835144
1768786802391.327,1406.5934065934066,,0,-1,1768786802.391327
1768786802399.1394,1405.128205128205,,0,-1,1768786802.3991394
1768786802406.952,1404.3956043956043,,0,-1,1768786802.406952
1768786802414.7644,1400.7326007326003,,0,-1,1768786802.4147644
1768786802422.577,1394.8717948717947,,0,-1,1768786802.422577
1768786802430.3894,1389.7435897435896,,0,-1,1768786802.4303894
1768786802438.202,1380.2197802197802,,0,-1,1768786802.438202
1768786802446.0144,1372.161172161172,,0,-1,1768786802.4460144
1768786802453.827,1368.4981684981683,,0,-1,1768786802.453827
1768786802461.6394,1359.7069597069597,,0,-1,1768786802.4616394
1768786802469.452,1350.18315018315,,0,-1,1768786802.469452
1768786802477.2644,1349.4505494505493,,0,-1,1768786802.4772644
1768786802485.077,1345.7875457875457,,0,-1,1768786802.485077
1768786802492.8894,1341.3919413919414,,0,-1,1768786802.4928894
1768786802500.702,1337.7289377289376,,0,-1,1768786802.500702
1768786802508.5144,1331.8681318681315,,0,-1,1768786802.5085144
1768786802516.327,1321.6117216117216,,0,-1,1768786802.516327
1768786802524.1394,1308.4249084249084,,0,-1,1768786802.5241394
1768786802531.952,1301.098901098901,,0,-1,1768786802.531952
1768786802539.7644,1295.2380952380952,,0,-1,1768786802.5397644
1768786802547.577,1292.3076923076922,,0,-1,1768786802.547577
1768786802555.3894,1295.970695970696,,0,-1,1768786802.5553894
1768786802563.202,1297.4358974358977,,0,-1,1768786802.563202
1768786802571.0144,1304.7619047619046,,0,-1,1768786802.5710144
1768786802578.827,1309.1575091575091,,0,-1,1768786802.578827
1768786802586.6394,1316.4835164835165,,0,-1,1768786802.5866394
1768786802594.452,1312.8205128205127,,0,-1,1768786802.594452
1768786802602.2644,1309.1575091575091,,1,2,1768786802.6022644
1768786802610.077,1304.7619047619046,,1,2,1768786802.610077
1768786802617.8894,1306.9597069597069,,1,2,1768786802.6178894
1768786802625.702,1309.89010989011,,1,2,1768786802.625702
1768786802633.5144,1312.087912087912,,1,2,1768786802.6335144
1768786802641.327,1316.4835164835165,,1,2,1768786802.641327
1768786802649.1394,1318.6813186813183,,1,2,1768786802.6491394
1768786802656.952,1324.5421245421244,,1,2,1768786802.656952
1768786802664.7644,1328.937728937729,,1,2,1768786802.6647644
1768786802672.577,1326.739926739927,,1,2,1768786802.672577
1768786802680.3894,1330.4029304029302,,1,2,1768786802.6803894
1768786802688.202,1328.2051282051282,,1,2,1768786802.688202
1768786802696.0144,1323.076923076923,,1,2,1768786802.6960144
1768786802703.827,1310.6227106227104,,1,2,1768786802.703827
1768786802711.6394,1301.098901098901,,1,2,1768786802.7116394
1768786802719.452,1286.4468864468863,,1,2,1768786802.719452
1768786802727.2644,1276.923076923077,,1,2,1768786802.7272644
1768786802735.077,1269.5970695970695,,1,2,1768786802.735077
1768786802742.8894,1263.003663003663,,1,2,1768786802.7428894
1768786802750.702,1257.875457875458,,1,2,1768786802.750702
1768786802758.5144,1252.014652014652,,1,2,1768786802.7585144
1768786802766.327,1248.3516483516482,,1,2,1768786802.766327
1768786802774.1394,1253.479853479853,,1,2,1768786802.7741394
1768786802781.952,1255.6776556776556,,1,2,1768786802.781952
1768786802789.7644,1262.2710622710622,,1,2,1768786802.7897644
1768786802797.577,1266.6666666666663,,1,2,1768786802.797577
1768786802805.3894,1274.7252747252746,,1,2,1768786802.8053894
1768786802813.202,1280.5860805860805,,1,2,1768786802.813202
1768786802821.0144,1288.6446886446886,,1,2,1768786802.8210144
1768786802828.827,1293.040293040293,,1,2,1768786802.828827
1768786802836.6394,1302.5641025641023,,1,2,1768786802.8366394
1768786802844.452,1308.4249084249084,,1,2,1768786802.844452
1768786802852.2644,1319.4139194139193,,1,2,1768786802.8522644
1768786802860.077,1334.7985347985348,,1,2,1768786802.860077
1768786802867.8894,1349.4505494505493,,1,2,1768786802.8678894
1768786802875.702,1365.5677655677655,,1,2,1768786802.875702
1768786802883.5144,1376.5567765567764,,1,2,1768786802.8835144
1768786802891.327,1381.6849816849815,,1,2,1768786802.891327
1768786802899.1394,1390.4761904761904,,1,2,1768786802.8991394
1768786802906.952,1397.069597069597,,1,2,1768786802.906952
1768786802914.7644,1410.989010989011,,1,2,1768786802.9147644
1768786802922.577,1428.5714285714284,,1,2,1768786802.922577
1768786802930.3894,1442.4908424908424,,1,2,1768786802.9303894
1768786802938.202,1460.805860805861,,1,2,1768786802.938202
1768786802946.0144,1472.5274725274724,,1,2,1768786802.9460144
1768786802953.827,1482.051282051282,,1,2,1768786802.953827
1768786802961.6394,1480.5860805860805,,1,2,1768786802.9616394
1768786802969.452,1481.3186813186812,,1,2,1768786802.969452
1768786802977.2644,1479.8534798534797,,1,2,1768786802.9772644
1768786802985.077,1487.179487179487,,1,2,1768786802.985077
1768786802992.8894,1492.3076923076922,,1,2,1768786802.9928894
1768786803000.702,1499.6336996336995,,1,2,1768786803.000702
1768786803008.5144,1504.7619047619046,,1,2,1768786803.0085144
1768786803016.327,1508.4249084249084,,1,2,1768786803.016327
1768786803024.1394,1505.4945054945051,,1,2,1768786803.0241394
1768786803031.952,1506.227106227106,,1,2,1768786803.031952
1768786803039.7644,1503.2967032967033,,1,2,1768786803.0397644
1768786803047.577,1498.9010989010987,,1,2,1768786803.047577
1768786803055.3894,1494.5054945054944,,1,2,1768786803.0553894
1768786803063.202,1484.9816849816848,,1,2,1768786803.063202
1768786803071.0144,1482.7838827838827,,1,2,1768786803.0710144
1768786803078.827,1478.3882783882782,,1,2,1768786803.078827
1768786803086.6394,1476.923076923077,,1,2,1768786803.0866394
1768786803094.452,1471.062271062271,,1,2,1768786803.094452
1768786803102.2644,1468.131868131868,,1,2,1768786803.1022644
1768786803110.077,1471.7948717948716,,1,2,1768786803.110077
1768786803117.8894,1476.923076923077,,1,2,1768786803.1178894
1768786803125.702,1482.051282051282,,1,2,1768786803.125702
1768786803133.5144,1490.8424908424906,,1,2,1768786803.1335144
1768786803141.327,1491.5750915750914,,1,2,1768786803.141327
1768786803149.1394,1494.5054945054944,,1,2,1768786803.1491394
1768786803156.952,1495.970695970696,,1,2,1768786803.156952
1768786803164.7644,1499.6336996336995,,1,2,1768786803.1647644
1768786803172.577,1501.8315018315018,,1,2,1768786803.172577
1768786803180.3894,1500.3663003663005,,1,2,1768786803.1803894
1768786803188.202,1498.168498168498,,1,2,1768786803.188202
1768786803196.0144,1487.9120879120878,,1,2,1768786803.1960144
1768786803203.827,1480.5860805860805,,1,2,1768786803.203827
1768786803211.6394,1465.9340659340658,,1,2,1768786803.2116394
1768786803219.452,1454.9450549450548,,1,2,1768786803.219452
1768786803227.2644,1446.8864468864467,,1,2,1768786803.2272644
1768786803235.077,1438.8278388278388,,1,2,1768786803.235077
1768786803242.8894,1433.6996336996335,,1,2,1768786803.2428894
1768786803250.702,1430.7692307692307,,1,2,1768786803.250702
1768786803258.5144,1425.6410256410256,,1,2,1768786803.2585144
1768786803266.327,1416.117216117216,,1,2,1768786803.266327
1768786803274.1394,1410.989010989011,,1,2,1768786803.2741394
1768786803281.952,1403.6630036630036,,1,2,1768786803.281952
1768786803289.7644,1401.4652014652013,,1,2,1768786803.2897644
1768786803297.577,1401.4652014652013,,1,2,1768786803.297577
1768786803305.3894,1402.197802197802,,1,2,1768786803.3053894
1768786803313.202,1405.128205128205,,1,2,1768786803.313202
1768786803321.0144,1407.3260073260071,,1,2,1768786803.3210144
1768786803328.827,1410.2564102564102,,1,2,1768786803.328827
1768786803336.6394,1408.058608058608,,1,2,1768786803.3366394
1768786803344.452,1406.5934065934066,,1,2,1768786803.344452
1768786803352.2644,1400.0,,1,2,1768786803.3522644
1768786803360.077,1390.4761904761904,,1,2,1768786803.360077
1768786803367.8894,1386.080586080586,,1,2,1768786803.3678894
1768786803375.702,1379.4871794871794,,1,2,1768786803.375702
1768786803383.5144,1378.021978021978,,1,2,1768786803.3835144
1768786803391.327,1372.8937728937728,,1,2,1768786803.391327
1768786803399.1394,1372.161172161172,,1,2,1768786803.3991394
1768786803406.952,1368.4981684981683,,1,2,1768786803.406952
1768786803414.7644,1367.032967032967,,1,2,1768786803.4147644
1768786803422.577,1371.428571428571,,1,2,1768786803.422577
1768786803430.3894,1372.161172161172,,1,2,1768786803.4303894
1768786803438.202,1372.161172161172,,1,2,1768786803.438202
1768786803446.0144,1376.5567765567764,,1,2,1768786803.4460144
1768786803453.827,1372.161172161172,,1,2,1768786803.453827
1768786803461.6394,1364.8351648351647,,1,2,1768786803.4616394
1768786803469.452,1358.974358974359,,1,2,1768786803.469452
1768786803477.2644,1343.5897435897434,,1,2,1768786803.4772644
1768786803485.077,1333.3333333333333,,1,2,1768786803.485077
1768786803492.8894,1324.5421245421244,,1,2,1768786803.4928894
1768786803500.702,1315.018315018315,,1,2,1768786803.500702
1768786803508.5144,1307.6923076923076,,1,2,1768786803.5085144
1768786803516.327,1304.7619047619046,,1,2,1768786803.516327
1768786803524.1394,1304.0293040293038,,1,2,1768786803.5241394
1768786803531.952,1299.6336996336995,,1,2,1768786803.531952
1768786803539.7644,1296.7032967032967,,1,2,1768786803.5397644
1768786803547.577,1294.5054945054944,,1,2,1768786803.547577
1768786803555.3894,1295.2380952380952,,1,2,1768786803.5553894
1768786803563.202,1298.168498168498,,1,2,1768786803.563202
1768786803571.0144,1302.5641025641023,,1,2,1768786803.5710144
1768786803578.827,1308.4249084249084,,1,2,1768786803.578827
1768786803586.6394,1313.5531135531137,,1,2,1768786803.5866394
1768786803594.452,1317.9487179487178,,1,2,1768786803.594452
1768786803602.2644,1321.6117216117216,,1,2,1768786803.6022644
1768786803610.077,1323.8095238095236,,1,2,1768786803.610077
1768786803617.8894,1319.4139194139193,,1,2,1768786803.6178894
1768786803625.702,1317.9487179487178,,1,2,1768786803.625702
1768786803633.5144,1317.9487179487178,,1,2,1768786803.6335144
1768786803641.327,1318.6813186813183,,1,2,1768786803.641327
1768786803649.1394,1318.6813186813183,,1,2,1768786803.6491394
1768786803656.952,1317.9487179487178,,1,2,1768786803.656952
1768786803664.7644,1315.7509157509155,,1,2,1768786803.6647644
1768786803672.577,1310.6227106227104,,1,2,1768786803.672577
1768786803680.3894,1304.0293040293038,,1,2,1768786803.6803894
1768786803688.202,1300.3663003663005,,1,2,1768786803.688202
1768786803696.0144,1297.4358974358977,,1,2,1768786803.6960144
1768786803703.827,1295.970695970696,,1,2,1768786803.703827
1768786803711.6394,1296.7032967032967,,1,2,1768786803.7116394
1768786803719.452,1298.168498168498,,1,2,1768786803.719452
1768786803727.2644,1299.6336996336995,,1,2,1768786803.7272644
1768786803735.077,1300.3663003663005,,1,2,1768786803.735077
1768786803742.8894,1298.9010989010987,,1,2,1768786803.7428894
1768786803750.702,1300.3663003663005,,1,2,1768786803.750702
1768786803758.5144,1304.7619047619046,,1,2,1768786803.7585144
1768786803766.327,1309.1575091575091,,1,2,1768786803.766327
1768786803774.1394,1309.89010989011,,1,2,1768786803.7741394
1768786803781.952,1309.1575091575091,,1,2,1768786803.781952
1768786803789.7644,1302.5641025641023,,1,2,1768786803.7897644
1768786803797.577,1293.7728937728937,,1,2,1768786803.797577
1768786803805.3894,1285.7142857142856,,1,2,1768786803.8053894
1768786803813.202,1281.3186813186812,,1,2,1768786803.813202
1768786803821.0144,1279.120879120879,,1,2,1768786803.8210144
1768786803828.827,1275.4578754578754,,1,2,1768786803.828827
1768786803836.6394,1273.992673992674,,1,2,1768786803.8366394
1768786803844.452,1273.260073260073,,1,2,1768786803.844452
1768786803852.2644,1270.3296703296703,,1,2,1768786803.8522644
1768786803860.077,1267.3992673992673,,1,2,1768786803.860077
1768786803867.8894,1268.131868131868,,1,2,1768786803.8678894
1768786803875.702,1269.5970695970695,,1,2,1768786803.875702
1768786803883.5144,1273.992673992674,,1,2,1768786803.8835144
1768786803891.327,1277.6556776556777,,1,2,1768786803.891327
1768786803899.1394,1282.051282051282,,1,2,1768786803.8991394
1768786803906.952,1283.5164835164835,,1,2,1768786803.906952
1768786803914.7644,1286.4468864468863,,1,2,1768786803.9147644
1768786803922.577,1291.5750915750914,,1,2,1768786803.922577
1768786803930.3894,1301.8315018315018,,1,2,1768786803.9303894
1768786803938.202,1315.7509157509155,,1,2,1768786803.938202
1768786803946.0144,1330.4029304029302,,1,2,1768786803.9460144
1768786803953.827,1345.7875457875457,,1,2,1768786803.953827
1768786803961.6394,1361.904761904762,,1,2,1768786803.9616394
1768786803969.452,1378.7545787545787,,1,2,1768786803.969452
1768786803977.2644,1393.4065934065934,,1,2,1768786803.9772644
1768786803985.077,1400.7326007326003,,1,2,1768786803.985077
1768786803992.8894,1407.3260073260071,,1,2,1768786803.9928894
1768786804000.702,1417.5824175824175,,1,2,1768786804.000702
1768786804008.5144,1424.9084249084249,,1,2,1768786804.0085144
1768786804016.327,1426.3736263736262,,1,2,1768786804.016327
1768786804024.1394,1427.106227106227,,1,2,1768786804.0241394
1768786804031.952,1427.106227106227,,1,2,1768786804.031952
1768786804039.7644,1424.9084249084249,,1,2,1768786804.0397644
1768786804047.577,1423.4432234432234,,1,2,1768786804.047577
1768786804055.3894,1424.9084249084249,,1,2,1768786804.0553894
1768786804063.202,1420.5128205128203,,1,2,1768786804.063202
1768786804071.0144,1418.3150183150185,,1,2,1768786804.0710144
1768786804078.827,1412.4542124542124,,1,2,1768786804.078827
1768786804086.6394,1404.3956043956043,,1,2,1768786804.0866394
1768786804094.452,1393.4065934065934,,1,2,1768786804.094452
1768786804102.2644,1384.6153846153843,,1,2,1768786804.1022644
1768786804110.077,1378.021978021978,,1,2,1768786804.110077
1768786804117.8894,1373.6263736263736,,1,2,1768786804.1178894
1768786804125.702,1371.428571428571,,1,2,1768786804.125702
1768786804133.5144,1369.9633699633698,,1,2,1768786804.1335144
1768786804141.327,1374.3589743589744,,1,2,1768786804.141327
1768786804149.1394,1379.4871794871794,,1,2,1768786804.1491394
1768786804156.952,1381.6849816849815,,1,2,1768786804.156952
1768786804164.7644,1382.4175824175825,,1,2,1768786804.1647644
1768786804172.577,1378.021978021978,,1,2,1768786804.172577
1768786804180.3894,1375.091575091575,,1,2,1768786804.1803894
1768786804188.202,1375.8241758241757,,1,2,1768786804.188202
1768786804196.0144,1379.4871794871794,,1,2,1768786804.1960144
1768786804203.827,1384.6153846153843,,1,2,1768786804.203827
1768786804211.6394,1387.5457875457876,,1,2,1768786804.2116394
1768786804219.452,1386.080586080586,,1,2,1768786804.219452
1768786804227.2644,1383.8827838827838,,1,2,1768786804.2272644
1768786804235.077,1380.952380952381,,1,2,1768786804.235077
1768786804242.8894,1380.952380952381,,1,2,1768786804.2428894
1768786804250.702,1389.7435897435896,,1,2,1768786804.250702
1768786804258.5144,1394.139194139194,,1,2,1768786804.2585144
1768786804266.327,1400.7326007326003,,1,2,1768786804.266327
1768786804274.1394,1402.197802197802,,1,2,1768786804.2741394
1768786804281.952,1400.7326007326003,,1,2,1768786804.281952
1768786804289.7644,1401.4652014652013,,1,2,1768786804.2897644
1768786804297.577,1400.0,,1,2,1768786804.297577
1768786804305.3894,1398.5347985347985,,1,2,1768786804.3053894
1768786804313.202,1403.6630036630036,,1,2,1768786804.313202
1768786804321.0144,1403.6630036630036,,1,2,1768786804.3210144
1768786804328.827,1402.197802197802,,1,2,1768786804.328827
1768786804336.6394,1392.6739926739926,,1,2,1768786804.3366394
1768786804344.452,1382.4175824175825,,1,2,1768786804.344452
1768786804352.2644,1373.6263736263736,,1,2,1768786804.3522644
1768786804360.077,1358.241758241758,,1,2,1768786804.360077
1768786804367.8894,1340.6593406593406,,1,2,1768786804.3678894
1768786804375.702,1328.2051282051282,,1,2,1768786804.375702
1768786804383.5144,1317.216117216117,,1,2,1768786804.3835144
1768786804391.327,1303.2967032967033,,1,2,1768786804.391327
1768786804399.1394,1294.5054945054944,,1,2,1768786804.3991394
1768786804406.952,1291.5750915750914,,0,-1,1768786804.406952
1768786804414.7644,1292.3076923076922,,0,-1,1768786804.4147644
1768786804422.577,1293.7728937728937,,0,-1,1768786804.422577
1768786804430.3894,1301.8315018315018,,0,-1,1768786804.4303894
1768786804438.202,1314.2857142857142,,0,-1,1768786804.438202
1768786804446.0144,1320.14652014652,,0,-1,1768786804.4460144
1768786804453.827,1326.007326007326,,0,-1,1768786804.453827
1768786804461.6394,1331.135531135531,,0,-1,1768786804.4616394
1768786804469.452,1329.6703296703297,,0,-1,1768786804.469452
1768786804477.2644,1325.2747252747251,,0,-1,1768786804.4772644
1768786804485.077,1320.14652014652,,0,-1,1768786804.485077
1768786804492.8894,1313.5531135531137,,0,-1,1768786804.4928894
1768786804500.702,1306.9597069597069,,0,-1,1768786804.500702
1768786804508.5144,1302.5641025641023,,0,-1,1768786804.5085144
1768786804516.327,1301.098901098901,,0,-1,1768786804.516327
1768786804524.1394,1300.3663003663005,,0,-1,1768786804.5241394
1768786804531.952,1296.7032967032967,,0,-1,1768786804.531952
1768786804539.7644,1295.970695970696,,0,-1,1768786804.5397644
1768786804547.577,1299.6336996336995,,0,-1,1768786804.547577
1768786804555.3894,1303.2967032967033,,0,-1,1768786804.5553894
1768786804563.202,1304.7619047619046,,0,-1,1768786804.563202
1768786804571.0144,1305.4945054945051,,0,-1,1768786804.5710144
1768786804578.827,1311.3553113553112,,0,-1,1768786804.578827
1768786804586.6394,1316.4835164835165,,0,-1,1768786804.5866394
1768786804594.452,1319.4139194139193,,0,-1,1768786804.594452
1768786804602.2644,1326.007326007326,,0,-1,1768786804.6022644
1768786804610.077,1328.2051282051282,,0,-1,1768786804.610077
1768786804617.8894,1325.2747252747251,,0,-1,1768786804.6178894
1768786804625.702,1320.14652014652,,0,-1,1768786804.625702
1768786804633.5144,1312.8205128205127,,0,-1,1768786804.6335144
1768786804641.327,1304.7619047619046,,0,-1,1768786804.641327
1768786804649.1394,1301.8315018315018,,0,-1,1768786804.6491394
1768786804656.952,1298.168498168498,,0,-1,1768786804.656952
1768786804664.7644,1295.970695970696,,0,-1,1768786804.6647644
1768786804672.577,1297.4358974358977,,0,-1,1768786804.672577
1768786804680.3894,1296.7032967032967,,0,-1,1768786804.6803894
1768786804688.202,1299.6336996336995,,0,-1,1768786804.688202
1768786804696.0144,1294.5054945054944,,0,-1,1768786804.6960144
1768786804703.827,1292.3076923076922,,0,-1,1768786804.703827
1768786804711.6394,1287.179487179487,,0,-1,1768786804.7116394
1768786804719.452,1288.6446886446886,,0,-1,1768786804.719452
1768786804727.2644,1287.179487179487,,0,-1,1768786804.7272644
1768786804735.077,1288.6446886446886,,0,-1,1768786804.735077
1768786804742.8894,1288.6446886446886,,0,-1,1768786804.7428894
1768786804750.702,1286.4468864468863,,0,-1,1768786804.750702
1768786804758.5144,1285.7142857142856,,0,-1,1768786804.7585144
1768786804766.327,1281.3186813186812,,0,-1,1768786804.766327
1768786804774.1394,1286.4468864468863,,0,-1,1768786804.7741394
1768786804781.952,1289.3772893772891,,0,-1,1768786804.781952
1768786804789.7644,1292.3076923076922,,0,-1,1768786804.7897644
1768786804797.577,1298.9010989010987,,0,-1,1768786804.797577
1768786804805.3894,1298.168498168498,,0,-1,1768786804.8053894
1768786804813.202,1298.9010989010987,,0,-1,1768786804.813202
1768786804821.0144,1303.2967032967033,,0,-1,1768786804.8210144
1768786804828.827,1303.2967032967033,,0,-1,1768786804.828827
1768786804836.6394,1306.227106227106,,0,-1,1768786804.8366394
1768786804844.452,1304.0293040293038,,0,-1,1768786804.844452
1768786804852.2644,1299.6336996336995,,0,-1,1768786804.8522644
1768786804860.077,1291.5750915750914,,0,-1,1768786804.860077
1768786804867.8894,1280.5860805860805,,0,-1,1768786804.8678894
1768786804875.702,1275.4578754578754,,0,-1,1768786804.875702
1768786804883.5144,1273.260073260073,,0,-1,1768786804.8835144
1768786804891.327,1279.120879120879,,0,-1,1768786804.891327
1768786804899.1394,1287.179487179487,,0,-1,1768786804.8991394
1768786804906.952,1294.5054945054944,,0,-1,1768786804.906952
1768786804914.7644,1305.4945054945051,,0,-1,1768786804.9147644
1768786804922.577,1311.3553113553112,,0,-1,1768786804.922577
1768786804930.3894,1321.6117216117216,,0,-1,1768786804.9303894
1768786804938.202,1331.135531135531,,0,-1,1768786804.938202
1768786804946.0144,1342.124542124542,,0,-1,1768786804.9460144
1768786804953.827,1359.7069597069597,,0,-1,1768786804.953827
1768786804961.6394,1372.161172161172,,0,-1,1768786804.9616394
1768786804969.452,1381.6849816849815,,0,-1,1768786804.969452
1768786804977.2644,1387.5457875457876,,0,-1,1768786804.9772644
1768786804985.077,1389.0109890109889,,0,-1,1768786804.985077
1768786804992.8894,1391.941391941392,,0,-1,1768786804.9928894
1768786805000.702,1395.6043956043954,,0,-1,1768786805.000702
1768786805008.5144,1392.6739926739926,,0,-1,1768786805.0085144
1768786805016.327,1390.4761904761904,,0,-1,1768786805.016327
1768786805024.1394,1383.150183150183,,0,-1,1768786805.0241394
1768786805031.952,1376.5567765567764,,0,-1,1768786805.031952
1768786805039.7644,1372.161172161172,,0,-1,1768786805.0397644
1768786805047.577,1368.4981684981683,,0,-1,1768786805.047577
1768786805055.3894,1368.4981684981683,,0,-1,1768786805.0553894
1768786805063.202,1372.161172161172,,0,-1,1768786805.063202
1768786805071.0144,1376.5567765567764,,0,-1,1768786805.0710144
1768786805078.827,1375.8241758241757,,0,-1,1768786805.078827
1768786805086.6394,1376.5567765567764,,0,-1,1768786805.0866394
1768786805094.452,1380.2197802197802,,0,-1,1768786805.094452
1768786805102.2644,1380.952380952381,,0,-1,1768786805.1022644
1768786805110.077,1380.2197802197802,,0,-1,1768786805.110077
1768786805117.8894,1380.2197802197802,,0,-1,1768786805.1178894
1768786805125.702,1370.6959706959706,,0,-1,1768786805.125702
1768786805133.5144,1362.6373626373625,,0,-1,1768786805.1335144
1768786805141.327,1357.5091575091574,,0,-1,1768786805.141327
1768786805149.1394,1351.6483516483515,,0,-1,1768786805.1491394
1768786805156.952,1350.9157509157508,,0,-1,1768786805.156952
1768786805164.7644,1350.9157509157508,,0,-1,1768786805.1647644
1768786805172.577,1351.6483516483515,,0,-1,1768786805.172577
1768786805180.3894,1354.5787545787546,,0,-1,1768786805.1803894
1768786805188.202,1358.974358974359,,0,-1,1768786805.188202
1768786805196.0144,1357.5091575091574,,0,-1,1768786805.1960144
1768786805203.827,1355.311355311355,,0,-1,1768786805.203827
1768786805211.6394,1356.7765567765566,,0,-1,1768786805.2116394
1768786805219.452,1357.5091575091574,,0,-1,1768786805.219452
1768786805227.2644,1358.241758241758,,0,-1,1768786805.2272644
1768786805235.077,1364.102564102564,,0,-1,1768786805.235077
1768786805242.8894,1367.7655677655678,,0,-1,1768786805.2428894
1768786805250.702,1373.6263736263736,,0,-1,1768786805.250702
1768786805258.5144,1378.7545787545787,,0,-1,1768786805.2585144
1768786805266.327,1377.2893772893772,,0,-1,1768786805.266327
1768786805274.1394,1378.021978021978,,0,-1,1768786805.2741394
1768786805281.952,1375.8241758241757,,0,-1,1768786805.281952
1768786805289.7644,1371.428571428571,,0,-1,1768786805.2897644
1768786805297.577,1369.9633699633698,,0,-1,1768786805.297577
1768786805305.3894,1362.6373626373625,,0,-1,1768786805.3053894
1768786805313.202,1351.6483516483515,,0,-1,1768786805.313202
1768786805321.0144,1345.054945054945,,0,-1,1768786805.3210144
1768786805328.827,1335.5311355311355,,0,-1,1768786805.328827
1768786805336.6394,1328.937728937729,,0,-1,1768786805.3366394
1768786805344.452,1327.4725274725274,,0,-1,1768786805.344452
1768786805352.2644,1326.739926739927,,0,-1,1768786805.3522644
1768786805360.077,1322.3443223443223,,0,-1,1768786805.360077
1768786805367.8894,1320.14652014652,,0,-1,1768786805.3678894
1768786805375.702,1320.8791208791208,,0,-1,1768786805.375702
1768786805383.5144,1318.6813186813183,,0,-1,1768786805.3835144
1768786805391.327,1323.8095238095236,,0,-1,1768786805.391327
1768786805399.1394,1326.007326007326,,0,-1,1768786805.3991394
1768786805406.952,1328.2051282051282,,0,-1,1768786805.406952
1768786805414.7644,1331.8681318681315,,0,-1,1768786805.4147644
1768786805422.577,1331.8681318681315,,0,-1,1768786805.422577
1768786805430.3894,1331.135531135531,,0,-1,1768786805.4303894
1768786805438.202,1334.065934065934,,0,-1,1768786805.438202
1768786805446.0144,1332.6007326007325,,0,-1,1768786805.4460144
1768786805453.827,1331.135531135531,,0,-1,1768786805.453827
1768786805461.6394,1330.4029304029302,,0,-1,1768786805.4616394
1768786805469.452,1332.6007326007325,,0,-1,1768786805.469452
1768786805477.2644,1335.5311355311355,,0,-1,1768786805.4772644
1768786805485.077,1333.3333333333333,,0,-1,1768786805.485077
1768786805492.8894,1327.4725274725274,,0,-1,1768786805.4928894
1768786805500.702,1323.076923076923,,0,-1,1768786805.500702
1768786805508.5144,1320.14652014652,,0,-1,1768786805.5085144
1768786805516.327,1318.6813186813183,,0,-1,1768786805.516327
1768786805524.1394,1317.9487179487178,,0,-1,1768786805.5241394
1768786805531.952,1317.9487179487178,,0,-1,1768786805.531952
1768786805539.7644,1321.6117216117216,,0,-1,1768786805.5397644
1768786805547.577,1323.8095238095236,,0,-1,1768786805.547577
1768786805555.3894,1326.007326007326,,0,-1,1768786805.5553894
1768786805563.202,1328.2051282051282,,0,-1,1768786805.563202
1768786805571.0144,1326.007326007326,,0,-1,1768786805.5710144
1768786805578.827,1323.076923076923,,0,-1,1768786805.578827
1768786805586.6394,1320.14652014652,,0,-1,1768786805.5866394
1768786805594.452,1317.216117216117,,0,-1,1768786805.594452
1768786805602.2644,1312.8205128205127,,0,-1,1768786805.6022644
1768786805610.077,1304.7619047619046,,0,-1,1768786805.610077
1768786805617.8894,1300.3663003663005,,0,-1,1768786805.6178894
1768786805625.702,1296.7032967032967,,0,-1,1768786805.625702
1768786805633.5144,1293.7728937728937,,0,-1,1768786805.6335144
1768786805641.327,1284.2490842490845,,0,-1,1768786805.641327
1768786805649.1394,1275.4578754578754,,0,-1,1768786805.6491394
1768786805656.952,1271.7948717948716,,0,-1,1768786805.656952
1768786805664.7644,1271.062271062271,,0,-1,1768786805.6647644
1768786805672.577,1273.260073260073,,0,-1,1768786805.672577
1768786805680.3894,1274.7252747252746,,0,-1,1768786805.6803894
1768786805688.202,1276.923076923077,,0,-1,1768786805.688202
1768786805696.0144,1282.7838827838827,,0,-1,1768786805.6960144
1768786805703.827,1289.3772893772891,,0,-1,1768786805.703827
1768786805711.6394,1295.2380952380952,,0,-1,1768786805.7116394
1768786805719.452,1298.168498168498,,0,-1,1768786805.719452
1768786805727.2644,1301.8315018315018,,0,-1,1768786805.7272644
1768786805735.077,1304.7619047619046,,0,-1,1768786805.735077
1768786805742.8894,1306.9597069597069,,0,-1,1768786805.7428894
1768786805750.702,1308.4249084249084,,0,-1,1768786805.750702
1768786805758.5144,1312.087912087912,,0,-1,1768786805.7585144
1768786805766.327,1316.4835164835165,,0,-1,1768786805.766327
1768786805774.1394,1318.6813186813183,,0,-1,1768786805.7741394
1768786805781.952,1316.4835164835165,,0,-1,1768786805.781952
1768786805789.7644,1314.2857142857142,,0,-1,1768786805.7897644
1768786805797.577,1309.89010989011,,0,-1,1768786805.797577
1768786805805.3894,1304.7619047619046,,0,-1,1768786805.8053894
1768786805813.202,1300.3663003663005,,0,-1,1768786805.813202
1768786805821.0144,1295.970695970696,,0,-1,1768786805.8210144
1768786805828.827,1293.040293040293,,0,-1,1768786805.828827
1768786805836.6394,1294.5054945054944,,0,-1,1768786805.8366394
1768786805844.452,1295.970695970696,,0,-1,1768786805.844452
1768786805852.2644,1298.168498168498,,0,-1,1768786805.8522644
1768786805860.077,1300.3663003663005,,0,-1,1768786805.860077
1768786805867.8894,1301.8315018315018,,0,-1,1768786805.8678894
1768786805875.702,1304.7619047619046,,0,-1,1768786805.875702
1768786805883.5144,1305.4945054945051,,0,-1,1768786805.8835144
1768786805891.327,1302.5641025641023,,0,-1,1768786805.891327
1768786805899.1394,1299.6336996336995,,0,-1,1768786805.8991394
1768786805906.952,1301.8315018315018,,0,-1,1768786805.906952
1768786805914.7644,1302.5641025641023,,0,-1,1768786805.9147644
1768786805922.577,1306.227106227106,,0,-1,1768786805.922577
1768786805930.3894,1309.89010989011,,0,-1,1768786805.9303894
1768786805938.202,1315.7509157509155,,0,-1,1768786805.938202
1768786805946.0144,1322.3443223443223,,0,-1,1768786805.9460144
1768786805953.827,1330.4029304029302,,0,-1,1768786805.953827
1768786805961.6394,1339.194139194139,,0,-1,1768786805.9616394
1768786805969.452,1345.7875457875457,,0,-1,1768786805.969452
1768786805977.2644,1350.9157509157508,,0,-1,1768786805.9772644
1768786805985.077,1353.8461538461538,,0,-1,1768786805.985077
1768786805992.8894,1353.113553113553,,0,-1,1768786805.9928894
1768786806000.702,1352.3809523809523,,0,-1,1768786806.000702
1768786806008.5144,1353.8461538461538,,0,-1,1768786806.0085144
1768786806016.327,1358.241758241758,,0,-1,1768786806.016327
1768786806024.1394,1366.3003663003662,,0,-1,1768786806.0241394
1768786806031.952,1375.091575091575,,0,-1,1768786806.031952
1768786806039.7644,1383.150183150183,,0,-1,1768786806.0397644
1768786806047.577,1391.941391941392,,0,-1,1768786806.047577
1768786806055.3894,1399.2673992673992,,0,-1,1768786806.0553894
1768786806063.202,1403.6630036630036,,0,-1,1768786806.063202
1768786806071.0144,1407.3260073260071,,0,-1,1768786806.0710144
1768786806078.827,1412.4542124542124,,0,-1,1768786806.078827
1768786806086.6394,1416.8498168498168,,0,-1,1768786806.0866394
1768786806094.452,1418.3150183150185,,0,-1,1768786806.094452
1768786806102.2644,1418.3150183150185,,0,-1,1768786806.1022644
1768786806110.077,1419.047619047619,,0,-1,1768786806.110077
1768786806117.8894,1417.5824175824175,,0,-1,1768786806.1178894
1768786806125.702,1414.6520146520145,,0,-1,1768786806.125702
1768786806133.5144,1408.7912087912086,,0,-1,1768786806.1335144
1768786806141.327,1402.197802197802,,0,-1,1768786806.141327
1768786806149.1394,1395.6043956043954,,0,-1,1768786806.1491394
1768786806156.952,1390.4761904761904,,0,-1,1768786806.156952
1768786806164.7644,1384.6153846153843,,0,-1,1768786806.1647644
1768786806172.577,1378.021978021978,,0,-1,1768786806.172577
1768786806180.3894,1375.091575091575,,0,-1,1768786806.1803894
1768786806188.202,1375.091575091575,,0,-1,1768786806.188202
1768786806196.0144,1377.2893772893772,,0,-1,1768786806.1960144
1768786806203.827,1377.2893772893772,,0,-1,1768786806.203827
1768786806211.6394,1378.7545787545787,,0,-1,1768786806.2116394
1768786806219.452,1384.6153846153843,,0,-1,1768786806.219452
1768786806227.2644,1388.278388278388,,0,-1,1768786806.2272644
1768786806235.077,1389.7435897435896,,0,-1,1768786806.235077
1768786806242.8894,1391.941391941392,,0,-1,1768786806.2428894
1768786806250.702,1394.8717948717947,,0,-1,1768786806.250702
1768786806258.5144,1396.3369963369962,,0,-1,1768786806.2585144
1768786806266.327,1397.069597069597,,0,-1,1768786806.266327
1768786806274.1394,1399.2673992673992,,0,-1,1768786806.2741394
1768786806281.952,1397.8021978021975,,0,-1,1768786806.281952
1768786806289.7644,1397.8021978021975,,0,-1,1768786806.2897644
1768786806297.577,1398.5347985347985,,0,-1,1768786806.297577
1768786806305.3894,1395.6043956043954,,0,-1,1768786806.3053894
1768786806313.202,1393.4065934065934,,0,-1,1768786806.313202
1768786806321.0144,1391.941391941392,,0,-1,1768786806.3210144
1768786806328.827,1389.7435897435896,,0,-1,1768786806.328827
1768786806336.6394,1389.0109890109889,,0,-1,1768786806.3366394
1768786806344.452,1387.5457875457876,,0,-1,1768786806.344452
1768786806352.2644,1384.6153846153843,,0,-1,1768786806.3522644
1768786806360.077,1383.8827838827838,,0,-1,1768786806.360077
1768786806367.8894,1380.2197802197802,,0,-1,1768786806.3678894
1768786806375.702,1376.5567765567764,,0,-1,1768786806.375702
1768786806383.5144,1372.161172161172,,0,-1,1768786806.3835144
1768786806391.327,1367.032967032967,,0,-1,1768786806.391327
1768786806399.1394,1364.102564102564,,0,-1,1768786806.3991394
1768786806406.952,1358.241758241758,,0,-1,1768786806.406952
1768786806414.7644,1350.18315018315,,0,-1,1768786806.4147644
1768786806422.577,1339.194139194139,,0,-1,1768786806.422577
1768786806430.3894,1329.6703296703297,,0,-1,1768786806.4303894
1768786806438.202,1324.5421245421244,,0,-1,1768786806.438202
1768786806446.0144,1320.14652014652,,0,-1,1768786806.4460144
1768786806453.827,1320.8791208791208,,0,-1,1768786806.453827
1768786806461.6394,1326.739926739927,,0,-1,1768786806.4616394
1768786806469.452,1331.135531135531,,0,-1,1768786806.469452
1768786806477.2644,1334.065934065934,,0,-1,1768786806.4772644
1768786806485.077,1336.9963369963368,,0,-1,1768786806.485077
1768786806492.8894,1339.92673992674,,0,-1,1768786806.4928894
1768786806500.702,1340.6593406593406,,0,-1,1768786806.500702
1768786806508.5144,1341.3919413919414,,0,-1,1768786806.5085144
1768786806516.327,1337.7289377289376,,0,-1,1768786806.516327
1768786806524.1394,1333.3333333333333,,0,-1,1768786806.5241394
1768786806531.952,1336.263736263736,,0,-1,1768786806.531952
1768786806539.7644,1340.6593406593406,,0,-1,1768786806.5397644
1768786806547.577,1343.5897435897434,,0,-1,1768786806.547577
1768786806555.3894,1347.2527472527472,,0,-1,1768786806.5553894
1768786806563.202,1347.2527472527472,,0,-1,1768786806.563202
1768786806571.0144,1347.2527472527472,,0,-1,1768786806.5710144
1768786806578.827,1344.3223443223442,,0,-1,1768786806.578827
1768786806586.6394,1340.6593406593406,,0,-1,1768786806.5866394
1768786806594.452,1337.7289377289376,,0,-1,1768786806.594452
1768786806602.2644,1335.5311355311355,,0,-1,1768786806.6022644
1768786806610.077,1334.065934065934,,0,-1,1768786806.610077
1768786806617.8894,1331.8681318681315,,0,-1,1768786806.6178894
1768786806625.702,1329.6703296703297,,0,-1,1768786806.625702
1768786806633.5144,1328.2051282051282,,0,-1,1768786806.6335144
1768786806641.327,1326.739926739927,,0,-1,1768786806.641327
1768786806649.1394,1325.2747252747251,,0,-1,1768786806.6491394
1768786806656.952,1326.007326007326,,0,-1,1768786806.656952
1768786806664.7644,1328.2051282051282,,0,-1,1768786806.6647644
1768786806672.577,1330.4029304029302,,0,-1,1768786806.672577
1768786806680.3894,1332.6007326007325,,0,-1,1768786806.6803894
1768786806688.202,1335.5311355311355,,0,-1,1768786806.688202
1768786806696.0144,1338.4615384615383,,0,-1,1768786806.6960144
1768786806703.827,1334.7985347985348,,0,-1,1768786806.703827
1768786806711.6394,1329.6703296703297,,0,-1,1768786806.7116394
1768786806719.452,1324.5421245421244,,0,-1,1768786806.719452
1768786806727.2644,1320.14652014652,,0,-1,1768786806.7272644
1768786806735.077,1315.7509157509155,,0,-1,1768786806.735077
1768786806742.8894,1315.7509157509155,,0,-1,1768786806.7428894
1768786806750.702,1317.9487179487178,,0,-1,1768786806.750702
1768786806758.5144,1320.8791208791208,,0,-1,1768786806.7585144
1768786806766.327,1321.6117216117216,,0,-1,1768786806.766327
1768786806774.1394,1324.5421245421244,,0,-1,1768786806.7741394
1768786806781.952,1331.135531135531,,0,-1,1768786806.781952
1768786806789.7644,1333.3333333333333,,0,-1,1768786806.7897644
1768786806797.577,1338.4615384615383,,0,-1,1768786806.797577
1768786806805.3894,1345.7875457875457,,0,-1,1768786806.8053894
1768786806813.202,1355.311355311355,,0,-1,1768786806.813202
1768786806821.0144,1362.6373626373625,,0,-1,1768786806.8210144
1768786806828.827,1366.3003663003662,,0,-1,1768786806.828827
1768786806836.6394,1364.8351648351647,,0,-1,1768786806.8366394
1768786806844.452,1359.7069597069597,,0,-1,1768786806.844452
1768786806852.2644,1354.5787545787546,,0,-1,1768786806.8522644
1768786806860.077,1345.054945054945,,0,-1,1768786806.860077
1768786806867.8894,1336.9963369963368,,0,-1,1768786806.8678894
1768786806875.702,1332.6007326007325,,0,-1,1768786806.875702
1768786806883.5144,1328.937728937729,,0,-1,1768786806.8835144
1768786806891.327,1320.8791208791208,,0,-1,1768786806.891327
1768786806899.1394,1313.5531135531137,,0,-1,1768786806.8991394
1768786806906.952,1309.89010989011,,0,-1,1768786806.906952
1768786806914.7644,1304.7619047619046,,0,-1,1768786806.9147644
1768786806922.577,1302.5641025641023,,0,-1,1768786806.922577
1768786806930.3894,1306.227106227106,,0,-1,1768786806.9303894
1768786806938.202,1309.1575091575091,,0,-1,1768786806.938202
1768786806946.0144,1306.9597069597069,,0,-1,1768786806.9460144
1768786806953.827,1309.1575091575091,,0,-1,1768786806.953827
1768786806961.6394,1305.4945054945051,,0,-1,1768786806.9616394
1768786806969.452,1301.8315018315018,,0,-1,1768786806.969452
1768786806977.2644,1303.2967032967033,,0,-1,1768786806.9772644
1768786806985.077,1307.6923076923076,,0,-1,1768786806.985077
1768786806992.8894,1314.2857142857142,,0,-1,1768786806.9928894
1768786807000.702,1327.4725274725274,,0,-1,1768786807.000702
1768786807008.5144,1341.3919413919414,,0,-1,1768786807.0085144
1768786807016.327,1351.6483516483515,,0,-1,1768786807.016327
1768786807024.1394,1364.8351648351647,,0,-1,1768786807.0241394
1768786807031.952,1381.6849816849815,,0,-1,1768786807.031952
1768786807039.7644,1391.2087912087911,,0,-1,1768786807.0397644
1768786807047.577,1393.4065934065934,,0,-1,1768786807.047577
1768786807055.3894,1396.3369963369962,,0,-1,1768786807.0553894
1768786807063.202,1400.7326007326003,,0,-1,1768786807.063202
1768786807071.0144,1402.9304029304028,,0,-1,1768786807.0710144
1768786807078.827,1405.8608058608058,,0,-1,1768786807.078827
1768786807086.6394,1408.058608058608,,0,-1,1768786807.0866394
1768786807094.452,1413.9194139194135,,0,-1,1768786807.094452
1768786807102.2644,1416.8498168498168,,0,-1,1768786807.1022644
1768786807110.077,1420.5128205128203,,0,-1,1768786807.110077
1768786807117.8894,1428.5714285714284,,0,-1,1768786807.1178894
1768786807125.702,1433.6996336996335,,0,-1,1768786807.125702
1768786807133.5144,1437.362637362637,,0,-1,1768786807.1335144
1768786807141.327,1441.7582417582416,,0,-1,1768786807.141327
1768786807149.1394,1447.6190476190477,,0,-1,1768786807.1491394
1768786807156.952,1448.3516483516482,,0,-1,1768786807.156952
1768786807164.7644,1449.084249084249,,0,-1,1768786807.1647644
1768786807172.577,1448.3516483516482,,0,-1,1768786807.172577
1768786807180.3894,1448.3516483516482,,0,-1,1768786807.1803894
1768786807188.202,1449.084249084249,,0,-1,1768786807.188202
1768786807196.0144,1446.153846153846,,1,3,1768786807.1960144
1768786807203.827,1444.688644688645,,1,3,1768786807.203827
1768786807211.6394,1436.6300366300366,,1,3,1768786807.2116394
1768786807219.452,1432.2344322344322,,1,3,1768786807.219452
1768786807227.2644,1428.5714285714284,,1,3,1768786807.2272644
1768786807235.077,1426.3736263736262,,1,3,1768786807.235077
1768786807242.8894,1427.8388278388277,,1,3,1768786807.2428894
1768786807250.702,1429.3040293040292,,1,3,1768786807.250702
1768786807258.5144,1428.5714285714284,,1,3,1768786807.2585144
1768786807266.327,1432.2344322344322,,1,3,1768786807.266327
1768786807274.1394,1429.3040293040292,,1,3,1768786807.2741394
1768786807281.952,1430.03663003663,,1,3,1768786807.281952
1768786807289.7644,1427.106227106227,,1,3,1768786807.2897644
1768786807297.577,1421.245421245421,,1,3,1768786807.297577
1768786807305.3894,1414.6520146520145,,1,3,1768786807.3053894
1768786807313.202,1402.9304029304028,,1,3,1768786807.313202
1768786807321.0144,1399.2673992673992,,1,3,1768786807.3210144
1768786807328.827,1402.9304029304028,,1,3,1768786807.328827
1768786807336.6394,1405.128205128205,,1,3,1768786807.3366394
1768786807344.452,1410.989010989011,,1,3,1768786807.344452
1768786807352.2644,1413.1868131868132,,1,3,1768786807.3522644
1768786807360.077,1415.3846153846152,,1,3,1768786807.360077
1768786807367.8894,1421.9780219780218,,1,3,1768786807.3678894
1768786807375.702,1421.245421245421,,1,3,1768786807.375702
1768786807383.5144,1418.3150183150185,,1,3,1768786807.3835144
1768786807391.327,1420.5128205128203,,1,3,1768786807.391327
1768786807399.1394,1416.8498168498168,,1,3,1768786807.3991394
1768786807406.952,1411.7216117216117,,1,3,1768786807.406952
1768786807414.7644,1407.3260073260071,,1,3,1768786807.4147644
1768786807422.577,1400.0,,1,3,1768786807.422577
1768786807430.3894,1389.0109890109889,,1,3,1768786807.4303894
1768786807438.202,1380.2197802197802,,1,3,1768786807.438202
1768786807446.0144,1373.6263736263736,,1,3,1768786807.4460144
1768786807453.827,1367.032967032967,,1,3,1768786807.453827
1768786807461.6394,1367.7655677655678,,1,3,1768786807.4616394
1768786807469.452,1369.9633699633698,,1,3,1768786807.469452
1768786807477.2644,1367.7655677655678,,1,3,1768786807.4772644
1768786807485.077,1369.230769230769,,1,3,1768786807.485077
1768786807492.8894,1371.428571428571,,1,3,1768786807.4928894
1768786807500.702,1375.091575091575,,1,3,1768786807.500702
1768786807508.5144,1378.021978021978,,1,3,1768786807.5085144
1768786807516.327,1380.2197802197802,,1,3,1768786807.516327
1768786807524.1394,1380.2197802197802,,1,3,1768786807.5241394
1768786807531.952,1377.2893772893772,,1,3,1768786807.531952
1768786807539.7644,1378.7545787545787,,1,3,1768786807.5397644
1768786807547.577,1380.2197802197802,,1,3,1768786807.547577
1768786807555.3894,1384.6153846153843,,1,3,1768786807.5553894
1768786807563.202,1387.5457875457876,,1,3,1768786807.563202
1768786807571.0144,1393.4065934065934,,1,3,1768786807.5710144
1768786807578.827,1397.8021978021975,,1,3,1768786807.578827
1768786807586.6394,1403.6630036630036,,1,3,1768786807.5866394
1768786807594.452,1408.7912087912086,,1,3,1768786807.594452
1768786807602.2644,1409.5238095238094,,1,3,1768786807.6022644
1768786807610.077,1411.7216117216117,,1,3,1768786807.610077
1768786807617.8894,1402.9304029304028,,1,3,1768786807.6178894
1768786807625.702,1394.139194139194,,1,3,1768786807.625702
1768786807633.5144,1384.6153846153843,,1,3,1768786807.6335144
1768786807641.327,1370.6959706959706,,1,3,1768786807.641327
1768786807649.1394,1360.4395604395604,,1,3,1768786807.6491394
1768786807656.952,1353.113553113553,,1,3,1768786807.656952
1768786807664.7644,1345.054945054945,,1,3,1768786807.6647644
1768786807672.577,1343.5897435897434,,1,3,1768786807.672577
1768786807680.3894,1342.124542124542,,1,3,1768786807.6803894
1768786807688.202,1344.3223443223442,,1,3,1768786807.688202
1768786807696.0144,1347.985347985348,,1,3,1768786807.6960144
1768786807703.827,1350.9157509157508,,1,3,1768786807.703827
1768786807711.6394,1358.974358974359,,1,3,1768786807.7116394
1768786807719.452,1362.6373626373625,,1,3,1768786807.719452
1768786807727.2644,1369.230769230769,,1,3,1768786807.7272644
1768786807735.077,1370.6959706959706,,1,3,1768786807.735077
1768786807742.8894,1375.8241758241757,,1,3,1768786807.7428894
1768786807750.702,1376.5567765567764,,1,3,1768786807.750702
1768786807758.5144,1378.021978021978,,1,3,1768786807.7585144
1768786807766.327,1378.7545787545787,,1,3,1768786807.766327
1768786807774.1394,1372.161172161172,,1,3,1768786807.7741394
1768786807781.952,1368.4981684981683,,1,3,1768786807.781952
1768786807789.7644,1361.1721611721612,,1,3,1768786807.7897644
1768786807797.577,1355.311355311355,,1,3,1768786807.797577
1768786807805.3894,1347.2527472527472,,1,3,1768786807.8053894
1768786807813.202,1339.194139194139,,1,3,1768786807.813202
1768786807821.0144,1338.4615384615383,,1,3,1768786807.8210144
1768786807828.827,1337.7289377289376,,1,3,1768786807.828827
1768786807836.6394,1338.4615384615383,,1,3,1768786807.8366394
1768786807844.452,1335.5311355311355,,1,3,1768786807.844452
1768786807852.2644,1331.8681318681315,,1,3,1768786807.8522644
1768786807860.077,1328.2051282051282,,1,3,1768786807.860077
1768786807867.8894,1331.135531135531,,1,3,1768786807.8678894
1768786807875.702,1329.6703296703297,,1,3,1768786807.875702
1768786807883.5144,1333.3333333333333,,1,3,1768786807.8835144
1768786807891.327,1332.6007326007325,,1,3,1768786807.891327
1768786807899.1394,1334.7985347985348,,1,3,1768786807.8991394
1768786807906.952,1333.3333333333333,,1,3,1768786807.906952
1768786807914.7644,1330.4029304029302,,1,3,1768786807.9147644
1768786807922.577,1326.739926739927,,1,3,1768786807.922577
1768786807930.3894,1320.14652014652,,1,3,1768786807.9303894
1768786807938.202,1319.4139194139193,,1,3,1768786807.938202
1768786807946.0144,1315.7509157509155,,1,3,1768786807.9460144
1768786807953.827,1317.216117216117,,1,3,1768786807.953827
1768786807961.6394,1315.7509157509155,,1,3,1768786807.9616394
1768786807969.452,1315.018315018315,,1,3,1768786807.969452
1768786807977.2644,1316.4835164835165,,1,3,1768786807.9772644
1768786807985.077,1319.4139194139193,,1,3,1768786807.985077
1768786807992.8894,1326.739926739927,,1,3,1768786807.9928894
1768786808000.702,1328.2051282051282,,1,3,1768786808.000702
1768786808008.5144,1326.007326007326,,1,3,1768786808.0085144
1768786808016.327,1328.2051282051282,,1,3,1768786808.016327
1768786808024.1394,1326.739926739927,,1,3,1768786808.0241394
1768786808031.952,1323.8095238095236,,1,3,1768786808.031952
1768786808039.7644,1318.6813186813183,,1,3,1768786808.0397644
1768786808047.577,1317.9487179487178,,1,3,1768786808.047577
1768786808055.3894,1315.7509157509155,,1,3,1768786808.0553894
1768786808063.202,1317.9487179487178,,1,3,1768786808.063202
1768786808071.0144,1321.6117216117216,,1,3,1768786808.0710144
1768786808078.827,1325.2747252747251,,1,3,1768786808.078827
1768786808086.6394,1334.065934065934,,1,3,1768786808.0866394
1768786808094.452,1342.857142857143,,1,3,1768786808.094452
1768786808102.2644,1350.9157509157508,,1,3,1768786808.1022644
1768786808110.077,1366.3003663003662,,1,3,1768786808.110077
1768786808117.8894,1383.150183150183,,1,3,1768786808.1178894
1768786808125.702,1404.3956043956043,,1,3,1768786808.125702
1768786808133.5144,1424.175824175824,,1,3,1768786808.1335144
1768786808141.327,1437.362637362637,,1,3,1768786808.141327
1768786808149.1394,1449.8168498168498,,1,3,1768786808.1491394
1768786808156.952,1454.212454212454,,1,3,1768786808.156952
1768786808164.7644,1456.4102564102564,,1,3,1768786808.1647644
1768786808172.577,1458.6080586080584,,1,3,1768786808.172577
1768786808180.3894,1456.4102564102564,,1,3,1768786808.1803894
1768786808188.202,1453.479853479853,,1,3,1768786808.188202
1768786808196.0144,1444.688644688645,,1,3,1768786808.1960144
1768786808203.827,1439.5604395604394,,1,3,1768786808.203827
1768786808211.6394,1441.0256410256409,,1,3,1768786808.2116394
1768786808219.452,1443.956043956044,,1,3,1768786808.219452
1768786808227.2644,1449.084249084249,,1,3,1768786808.2272644
1768786808235.077,1454.9450549450548,,1,3,1768786808.235077
1768786808242.8894,1463.7362637362637,,1,3,1768786808.2428894
1768786808250.702,1471.7948717948716,,1,3,1768786808.250702
1768786808258.5144,1478.3882783882782,,1,3,1768786808.2585144
1768786808266.327,1482.7838827838827,,1,3,1768786808.266327
1768786808274.1394,1484.2490842490845,,1,3,1768786808.2741394
1768786808281.952,1482.7838827838827,,1,3,1768786808.281952
1768786808289.7644,1479.120879120879,,1,3,1768786808.2897644
1768786808297.577,1476.923076923077,,1,3,1768786808.297577
1768786808305.3894,1468.8644688644688,,1,3,1768786808.3053894
1768786808313.202,1463.003663003663,,1,3,1768786808.313202
1768786808321.0144,1459.3406593406592,,1,3,1768786808.3210144
1768786808328.827,1463.003663003663,,1,3,1768786808.328827
1768786808336.6394,1465.9340659340658,,1,3,1768786808.3366394
1768786808344.452,1462.2710622710622,,1,3,1768786808.344452
1768786808352.2644,1459.3406593406592,,1,3,1768786808.3522644
1768786808360.077,1457.875457875458,,1,3,1768786808.360077
1768786808367.8894,1453.479853479853,,1,3,1768786808.3678894
1768786808375.702,1450.5494505494505,,1,3,1768786808.375702
1768786808383.5144,1450.5494505494505,,1,3,1768786808.3835144
1768786808391.327,1447.6190476190477,,1,3,1768786808.391327
1768786808399.1394,1446.153846153846,,1,3,1768786808.3991394
1768786808406.952,1443.956043956044,,1,3,1768786808.406952
1768786808414.7644,1441.0256410256409,,1,3,1768786808.4147644
1768786808422.577,1436.6300366300366,,1,3,1768786808.422577
1768786808430.3894,1435.8974358974358,,1,3,1768786808.4303894
1768786808438.202,1438.8278388278388,,1,3,1768786808.438202
1768786808446.0144,1443.2234432234432,,1,3,1768786808.4460144
1768786808453.827,1446.153846153846,,1,3,1768786808.453827
1768786808461.6394,1445.4212454212454,,1,3,1768786808.4616394
1768786808469.452,1443.2234432234432,,1,3,1768786808.469452
1768786808477.2644,1443.2234432234432,,1,3,1768786808.4772644
1768786808485.077,1443.2234432234432,,1,3,1768786808.485077
1768786808492.8894,1443.2234432234432,,1,3,1768786808.4928894
1768786808500.702,1439.5604395604394,,1,3,1768786808.500702
1768786808508.5144,1435.164835164835,,1,3,1768786808.5085144
1768786808516.327,1432.9670329670328,,1,3,1768786808.516327
1768786808524.1394,1429.3040293040292,,1,3,1768786808.5241394
1768786808531.952,1423.4432234432234,,1,3,1768786808.531952
1768786808539.7644,1416.8498168498168,,1,3,1768786808.5397644
1768786808547.577,1413.9194139194135,,1,3,1768786808.547577
1768786808555.3894,1414.6520146520145,,1,3,1768786808.5553894
1768786808563.202,1413.9194139194135,,1,3,1768786808.563202
1768786808571.0144,1412.4542124542124,,1,3,1768786808.5710144
1768786808578.827,1405.8608058608058,,1,3,1768786808.578827
1768786808586.6394,1400.0,,1,3,1768786808.5866394
1768786808594.452,1395.6043956043954,,1,3,1768786808.594452
1768786808602.2644,1396.3369963369962,,1,3,1768786808.6022644
1768786808610.077,1401.4652014652013,,1,3,1768786808.610077
1768786808617.8894,1402.197802197802,,1,3,1768786808.6178894
1768786808625.702,1400.0,,1,3,1768786808.625702
1768786808633.5144,1396.3369963369962,,1,3,1768786808.6335144
1768786808641.327,1394.139194139194,,1,3,1768786808.641327
1768786808649.1394,1394.8717948717947,,1,3,1768786808.6491394
1768786808656.952,1397.8021978021975,,1,3,1768786808.656952
1768786808664.7644,1400.7326007326003,,1,3,1768786808.6647644
1768786808672.577,1402.197802197802,,1,3,1768786808.672577
1768786808680.3894,1406.5934065934066,,1,3,1768786808.6803894
1768786808688.202,1412.4542124542124,,1,3,1768786808.688202
1768786808696.0144,1418.3150183150185,,1,3,1768786808.6960144
1768786808703.827,1424.175824175824,,1,3,1768786808.703827
1768786808711.6394,1428.5714285714284,,1,3,1768786808.7116394
1768786808719.452,1430.03663003663,,1,3,1768786808.719452
1768786808727.2644,1428.5714285714284,,1,3,1768786808.7272644
1768786808735.077,1427.106227106227,,1,3,1768786808.735077
1768786808742.8894,1424.175824175824,,1,3,1768786808.7428894
1768786808750.702,1419.047619047619,,1,3,1768786808.750702
1768786808758.5144,1414.6520146520145,,1,3,1768786808.7585144
1768786808766.327,1410.989010989011,,1,3,1768786808.766327
1768786808774.1394,1405.8608058608058,,1,3,1768786808.7741394
1768786808781.952,1397.069597069597,,1,3,1768786808.781952
1768786808789.7644,1386.8131868131868,,1,3,1768786808.7897644
1768786808797.577,1380.2197802197802,,1,3,1768786808.797577
1768786808805.3894,1373.6263736263736,,1,3,1768786808.8053894
1768786808813.202,1368.4981684981683,,1,3,1768786808.813202
1768786808821.0144,1364.8351648351647,,1,3,1768786808.8210144
1768786808828.827,1364.102564102564,,1,3,1768786808.828827
1768786808836.6394,1356.7765567765566,,1,3,1768786808.8366394
1768786808844.452,1352.3809523809523,,1,3,1768786808.844452
1768786808852.2644,1345.7875457875457,,1,3,1768786808.8522644
1768786808860.077,1338.4615384615383,,1,3,1768786808.860077
1768786808867.8894,1334.7985347985348,,1,3,1768786808.8678894
1768786808875.702,1336.263736263736,,1,3,1768786808.875702
1768786808883.5144,1337.7289377289376,,1,3,1768786808.8835144
1768786808891.327,1341.3919413919414,,1,3,1768786808.891327
1768786808899.1394,1344.3223443223442,,1,3,1768786808.8991394
1768786808906.952,1348.7179487179487,,1,3,1768786808.906952
1768786808914.7644,1354.5787545787546,,1,3,1768786808.9147644
1768786808922.577,1354.5787545787546,,1,3,1768786808.922577
1768786808930.3894,1353.8461538461538,,1,3,1768786808.9303894
1768786808938.202,1351.6483516483515,,1,3,1768786808.938202
1768786808946.0144,1350.18315018315,,1,3,1768786808.9460144
1768786808953.827,1346.5201465201465,,1,3,1768786808.953827
1768786808961.6394,1347.2527472527472,,1,3,1768786808.9616394
1768786808969.452,1350.18315018315,,1,3,1768786808.969452
1768786808977.2644,1350.9157509157508,,1,3,1768786808.9772644
1768786808985.077,1348.7179487179487,,1,3,1768786808.985077
1768786808992.8894,1344.3223443223442,,0,-1,1768786808.9928894
1768786809000.702,1341.3919413919414,,0,-1,1768786809.000702
1768786809008.5144,1336.263736263736,,0,-1,1768786809.0085144
1768786809016.327,1332.6007326007325,,0,-1,1768786809.016327
1768786809024.1394,1330.4029304029302,,0,-1,1768786809.0241394
1768786809031.952,1330.4029304029302,,0,-1,1768786809.031952
1768786809039.7644,1331.135531135531,,0,-1,1768786809.0397644
1768786809047.577,1333.3333333333333,,0,-1,1768786809.047577
1768786809055.3894,1336.263736263736,,0,-1,1768786809.0553894
1768786809063.202,1337.7289377289376,,0,-1,1768786809.063202
1768786809071.0144,1341.3919413919414,,0,-1,1768786809.0710144
1768786809078.827,1342.124542124542,,0,-1,1768786809.078827
1768786809086.6394,1343.5897435897434,,0,-1,1768786809.0866394
1768786809094.452,1346.5201465201465,,0,-1,1768786809.094452
1768786809102.2644,1350.9157509157508,,0,-1,1768786809.1022644
1768786809110.077,1360.4395604395604,,0,-1,1768786809.110077
1768786809117.8894,1377.2893772893772,,0,-1,1768786809.1178894
1768786809125.702,1397.069597069597,,0,-1,1768786809.125702
1768786809133.5144,1416.8498168498168,,0,-1,1768786809.1335144
1768786809141.327,1435.8974358974358,,0,-1,1768786809.141327
1768786809149.1394,1453.479853479853,,0,-1,1768786809.1491394
1768786809156.9824,1465.201465201465,,0,-1,1768786809.1569824
1768786809164.7644,1478.3882783882782,,0,-1,1768786809.1647644
1768786809172.577,1484.9816849816848,,0,-1,1768786809.172577
1768786809180.3894,1486.4468864468863,,0,-1,1768786809.1803894
1768786809188.202,1485.7142857142856,,0,-1,1768786809.188202
1768786809196.0144,1484.9816849816848,,0,-1,1768786809.1960144
1768786809203.827,1482.7838827838827,,0,-1,1768786809.203827
1768786809211.6394,1484.9816849816848,,0,-1,1768786809.2116394
1768786809219.452,1483.5164835164835,,0,-1,1768786809.219452
1768786809227.2644,1479.8534798534797,,0,-1,1768786809.2272644
1768786809235.077,1478.3882783882782,,0,-1,1768786809.235077
1768786809242.8894,1478.3882783882782,,0,-1,1768786809.2428894
1768786809250.702,1479.120879120879,,0,-1,1768786809.250702
1768786809258.5144,1483.5164835164835,,0,-1,1768786809.2585144
1768786809266.327,1487.179487179487,,0,-1,1768786809.266327
1768786809274.1394,1487.9120879120878,,0,-1,1768786809.2741394
1768786809281.952,1488.6446886446886,,0,-1,1768786809.281952
1768786809289.7644,1488.6446886446886,,0,-1,1768786809.2897644
1768786809297.577,1487.9120879120878,,0,-1,1768786809.297577
1768786809305.3894,1490.10989010989,,0,-1,1768786809.3053894
1768786809313.202,1494.5054945054944,,0,-1,1768786809.313202
1768786809321.0144,1499.6336996336995,,0,-1,1768786809.3210144
1768786809328.827,1504.0293040293038,,0,-1,1768786809.328827
1768786809336.6394,1505.4945054945051,,0,-1,1768786809.3366394
1768786809344.452,1505.4945054945051,,0,-1,1768786809.344452
1768786809352.2644,1499.6336996336995,,0,-1,1768786809.3522644
1768786809360.077,1494.5054945054944,,0,-1,1768786809.360077
1768786809367.8894,1487.9120879120878,,0,-1,1768786809.3678894
1768786809375.702,1483.5164835164835,,0,-1,1768786809.375702
1768786809383.5144,1479.8534798534797,,0,-1,1768786809.3835144
1768786809391.327,1475.4578754578754,,0,-1,1768786809.391327
1768786809399.1394,1471.062271062271,,0,-1,1768786809.3991394
1768786809406.952,1465.201465201465,,0,-1,1768786809.406952
1768786809414.7644,1459.3406593406592,,0,-1,1768786809.4147644
1768786809422.577,1453.479853479853,,0,-1,1768786809.422577
1768786809430.3894,1450.5494505494505,,0,-1,1768786809.4303894
1768786809438.202,1451.2820512820513,,0,-1,1768786809.438202
1768786809446.0144,1455.6776556776556,,0,-1,1768786809.4460144
1768786809453.827,1451.2820512820513,,0,-1,1768786809.453827
1768786809461.6394,1441.7582417582416,,0,-1,1768786809.4616394
1768786809469.452,1438.8278388278388,,0,-1,1768786809.469452
1768786809477.2644,1437.362637362637,,0,-1,1768786809.4772644
1768786809485.077,1430.7692307692307,,0,-1,1768786809.485077
1768786809492.8894,1424.9084249084249,,0,-1,1768786809.4928894
1768786809500.702,1418.3150183150185,,0,-1,1768786809.500702
1768786809508.5144,1413.1868131868132,,0,-1,1768786809.5085144
1768786809516.327,1413.1868131868132,,0,-1,1768786809.516327
1768786809524.1394,1412.4542124542124,,0,-1,1768786809.5241394
1768786809531.952,1412.4542124542124,,0,-1,1768786809.531952
1768786809539.7644,1413.9194139194135,,0,-1,1768786809.5397644
1768786809547.577,1419.7802197802198,,0,-1,1768786809.547577
1768786809555.3894,1422.7106227106226,,0,-1,1768786809.5553894
1768786809563.202,1422.7106227106226,,0,-1,1768786809.563202
1768786809571.0144,1417.5824175824175,,0,-1,1768786809.5710144
1768786809578.827,1413.1868131868132,,0,-1,1768786809.578827
1768786809586.6394,1409.5238095238094,,0,-1,1768786809.5866394
1768786809594.452,1405.8608058608058,,0,-1,1768786809.594452
1768786809602.2644,1402.197802197802,,0,-1,1768786809.6022644
1768786809610.077,1397.069597069597,,0,-1,1768786809.610077
1768786809617.8894,1393.4065934065934,,0,-1,1768786809.6178894
1768786809625.702,1392.6739926739926,,0,-1,1768786809.625702
1768786809633.5144,1394.139194139194,,0,-1,1768786809.6335144
1768786809641.327,1394.8717948717947,,0,-1,1768786809.641327
1768786809649.1394,1397.8021978021975,,0,-1,1768786809.6491394
1768786809656.952,1402.9304029304028,,0,-1,1768786809.656952
1768786809664.7644,1409.5238095238094,,0,-1,1768786809.6647644
1768786809672.577,1413.1868131868132,,0,-1,1768786809.672577
1768786809680.3894,1415.3846153846152,,0,-1,1768786809.6803894
1768786809688.202,1413.9194139194135,,0,-1,1768786809.688202
1768786809696.0144,1412.4542124542124,,0,-1,1768786809.6960144
1768786809703.827,1408.058608058608,,0,-1,1768786809.703827
1768786809711.6394,1398.5347985347985,,0,-1,1768786809.7116394
1768786809719.452,1382.4175824175825,,0,-1,1768786809.719452
1768786809727.2644,1371.428571428571,,0,-1,1768786809.7272644
1768786809735.077,1361.1721611721612,,0,-1,1768786809.735077
1768786809742.8894,1354.5787545787546,,0,-1,1768786809.7428894
1768786809750.702,1349.4505494505493,,0,-1,1768786809.750702
1768786809758.5144,1342.857142857143,,0,-1,1768786809.7585144
1768786809766.327,1340.6593406593406,,0,-1,1768786809.766327
1768786809774.1394,1344.3223443223442,,0,-1,1768786809.7741394
1768786809781.952,1347.985347985348,,0,-1,1768786809.781952
1768786809789.7644,1349.4505494505493,,0,-1,1768786809.7897644
1768786809797.577,1353.8461538461538,,0,-1,1768786809.797577
1768786809805.3894,1354.5787545787546,,0,-1,1768786809.8053894
1768786809813.202,1350.9157509157508,,0,-1,1768786809.813202
1768786809821.0144,1345.054945054945,,0,-1,1768786809.8210144
1768786809828.827,1345.054945054945,,0,-1,1768786809.828827
1768786809836.6394,1341.3919413919414,,0,-1,1768786809.8366394
1768786809844.452,1339.92673992674,,0,-1,1768786809.844452
1768786809852.2644,1344.3223443223442,,0,-1,1768786809.8522644
1768786809860.077,1347.985347985348,,0,-1,1768786809.860077
1768786809867.8894,1345.7875457875457,,0,-1,1768786809.8678894
1768786809875.702,1346.5201465201465,,0,-1,1768786809.875702
1768786809883.5144,1341.3919413919414,,0,-1,1768786809.8835144
1768786809891.327,1333.3333333333333,,0,-1,1768786809.891327
1768786809899.1394,1328.937728937729,,0,-1,1768786809.8991394
1768786809906.952,1322.3443223443223,,0,-1,1768786809.906952
1768786809914.7644,1320.14652014652,,0,-1,1768786809.9147644
1768786809922.577,1320.8791208791208,,0,-1,1768786809.922577
1768786809930.3894,1318.6813186813183,,0,-1,1768786809.9303894
1768786809938.202,1317.9487179487178,,0,-1,1768786809.938202
1768786809946.0144,1314.2857142857142,,0,-1,1768786809.9460144
1768786809953.827,1310.6227106227104,,0,-1,1768786809.953827
1768786809961.6394,1303.2967032967033,,0,-1,1768786809.9616394
1768786809969.452,1299.6336996336995,,0,-1,1768786809.969452
1768786809977.2644,1292.3076923076922,,0,-1,1768786809.9772644
1768786809985.077,1290.8424908424909,,0,-1,1768786809.985077
1768786809992.8894,1288.6446886446886,,0,-1,1768786809.9928894
1768786810000.702,1291.5750915750914,,0,-1,1768786810.000702
1768786810008.5144,1290.8424908424909,,0,-1,1768786810.0085144
1768786810016.327,1293.7728937728937,,0,-1,1768786810.016327
1768786810024.1394,1298.168498168498,,0,-1,1768786810.0241394
1768786810031.952,1299.6336996336995,,0,-1,1768786810.031952
1768786810039.7644,1305.4945054945051,,0,-1,1768786810.0397644
1768786810047.577,1308.4249084249084,,0,-1,1768786810.047577
1768786810055.3894,1315.018315018315,,0,-1,1768786810.0553894
1768786810063.202,1319.4139194139193,,0,-1,1768786810.063202
1768786810071.0144,1327.4725274725274,,0,-1,1768786810.0710144
1768786810078.827,1337.7289377289376,,0,-1,1768786810.078827
1768786810086.6394,1350.9157509157508,,0,-1,1768786810.0866394
1768786810094.452,1366.3003663003662,,0,-1,1768786810.094452
1768786810102.2644,1380.2197802197802,,0,-1,1768786810.1022644
1768786810110.077,1397.069597069597,,0,-1,1768786810.110077
1768786810117.8894,1408.058608058608,,0,-1,1768786810.1178894
1768786810125.702,1424.9084249084249,,0,-1,1768786810.125702
1768786810133.5144,1439.5604395604394,,0,-1,1768786810.1335144
1768786810141.327,1457.142857142857,,0,-1,1768786810.141327
1768786810149.1394,1469.5970695970695,,0,-1,1768786810.1491394
1768786810156.952,1488.6446886446886,,0,-1,1768786810.156952
1768786810164.7644,1501.098901098901,,0,-1,1768786810.1647644
1768786810172.577,1515.7509157509155,,0,-1,1768786810.172577
1768786810180.3894,1519.4139194139193,,0,-1,1768786810.1803894
1768786810188.202,1526.007326007326,,0,-1,1768786810.188202
1768786810196.0144,1526.007326007326,,0,-1,1768786810.1960144
1768786810203.827,1528.937728937729,,0,-1,1768786810.203827
1768786810211.6394,1526.739926739927,,0,-1,1768786810.2116394
1768786810219.452,1527.4725274725274,,0,-1,1768786810.219452
1768786810227.2644,1524.5421245421244,,0,-1,1768786810.2272644
1768786810235.077,1525.2747252747251,,0,-1,1768786810.235077
1768786810242.8894,1523.0769230769229,,0,-1,1768786810.2428894
1768786810250.702,1524.5421245421244,,0,-1,1768786810.250702
1768786810258.5144,1517.9487179487178,,0,-1,1768786810.2585144
1768786810266.327,1515.7509157509155,,0,-1,1768786810.266327
1768786810274.1394,1509.89010989011,,0,-1,1768786810.2741394
1768786810281.952,1509.1575091575091,,0,-1,1768786810.281952
1768786810289.7644,1502.5641025641023,,0,-1,1768786810.2897644
1768786810297.577,1501.8315018315018,,0,-1,1768786810.297577
1768786810305.3894,1497.4358974358972,,0,-1,1768786810.3053894
1768786810313.202,1494.5054945054944,,0,-1,1768786810.313202
1768786810321.0144,1488.6446886446886,,0,-1,1768786810.3210144
1768786810328.827,1489.3772893772891,,0,-1,1768786810.328827
1768786810336.6394,1486.4468864468863,,0,-1,1768786810.3366394
1768786810344.452,1487.179487179487,,0,-1,1768786810.344452
1768786810352.2644,1482.051282051282,,0,-1,1768786810.3522644
1768786810360.077,1480.5860805860805,,0,-1,1768786810.360077
1768786810367.8894,1471.7948717948716,,0,-1,1768786810.3678894
1768786810375.702,1468.131868131868,,0,-1,1768786810.375702
1768786810383.5144,1460.805860805861,,0,-1,1768786810.3835144
1768786810391.327,1456.4102564102564,,0,-1,1768786810.391327
1768786810399.1394,1448.3516483516482,,0,-1,1768786810.3991394
1768786810406.952,1445.4212454212454,,0,-1,1768786810.406952
1768786810414.7644,1436.6300366300366,,0,-1,1768786810.4147644
1768786810422.577,1429.3040293040292,,0,-1,1768786810.422577
1768786810430.3894,1421.9780219780218,,0,-1,1768786810.4303894
1768786810438.202,1416.8498168498168,,0,-1,1768786810.438202
1768786810446.0144,1410.989010989011,,0,-1,1768786810.4460144
1768786810453.827,1410.2564102564102,,0,-1,1768786810.453827
1768786810461.6394,1408.058608058608,,0,-1,1768786810.4616394
1768786810469.452,1410.989010989011,,0,-1,1768786810.469452
1768786810477.2644,1410.989010989011,,0,-1,1768786810.4772644
1768786810485.077,1410.989010989011,,0,-1,1768786810.485077
1768786810492.8894,1405.128205128205,,0,-1,1768786810.4928894
1768786810500.702,1397.8021978021975,,0,-1,1768786810.500702
1768786810508.5144,1393.4065934065934,,0,-1,1768786810.5085144
1768786810516.327,1386.8131868131868,,0,-1,1768786810.516327
1768786810524.1394,1384.6153846153843,,0,-1,1768786810.5241394
1768786810531.952,1376.5567765567764,,0,-1,1768786810.531952
1768786810539.7644,1374.3589743589744,,0,-1,1768786810.5397644
1768786810547.577,1371.428571428571,,0,-1,1768786810.547577
1768786810555.3894,1369.230769230769,,0,-1,1768786810.5553894
1768786810563.202,1370.6959706959706,,0,-1,1768786810.563202
1768786810571.0144,1372.161172161172,,0,-1,1768786810.5710144
1768786810578.827,1378.7545787545787,,0,-1,1768786810.578827
1768786810586.6394,1383.8827838827838,,0,-1,1768786810.5866394
1768786810594.452,1393.4065934065934,,0,-1,1768786810.594452
1768786810602.2644,1394.8717948717947,,0,-1,1768786810.6022644
1768786810610.077,1394.8717948717947,,0,-1,1768786810.610077
1768786810617.8894,1394.139194139194,,0,-1,1768786810.6178894
1768786810625.702,1391.941391941392,,0,-1,1768786810.625702
1768786810633.5144,1390.4761904761904,,0,-1,1768786810.6335144
1768786810641.327,1390.4761904761904,,0,-1,1768786810.641327
1768786810649.1394,1389.7435897435896,,0,-1,1768786810.6491394
1768786810656.9824,1388.278388278388,,0,-1,1768786810.6569824
1768786810664.7644,1386.8131868131868,,0,-1,1768786810.6647644
1768786810672.577,1383.150183150183,,0,-1,1768786810.672577
1768786810680.3894,1377.2893772893772,,0,-1,1768786810.6803894
1768786810688.202,1365.5677655677655,,0,-1,1768786810.688202
1768786810696.0144,1357.5091575091574,,0,-1,1768786810.6960144
1768786810703.827,1352.3809523809523,,0,-1,1768786810.703827
1768786810711.6394,1347.985347985348,,0,-1,1768786810.7116394
1768786810719.452,1344.3223443223442,,0,-1,1768786810.719452
1768786810727.2644,1339.194139194139,,0,-1,1768786810.7272644
1768786810735.077,1335.5311355311355,,0,-1,1768786810.735077
1768786810742.8894,1332.6007326007325,,0,-1,1768786810.7428894
1768786810750.702,1332.6007326007325,,0,-1,1768786810.750702
1768786810758.5144,1334.7985347985348,,0,-1,1768786810.7585144
1768786810766.327,1342.124542124542,,0,-1,1768786810.766327
1768786810774.1394,1344.3223443223442,,0,-1,1768786810.7741394
1768786810781.952,1346.5201465201465,,0,-1,1768786810.781952
1768786810789.7644,1347.2527472527472,,0,-1,1768786810.7897644
1768786810797.577,1344.3223443223442,,0,-1,1768786810.797577
1768786810805.3894,1341.3919413919414,,0,-1,1768786810.8053894
1768786810813.202,1342.857142857143,,0,-1,1768786810.813202
1768786810821.0144,1340.6593406593406,,0,-1,1768786810.8210144
1768786810828.827,1336.9963369963368,,0,-1,1768786810.828827
1768786810836.6394,1332.6007326007325,,0,-1,1768786810.8366394
1768786810844.452,1327.4725274725274,,0,-1,1768786810.844452
1768786810852.2644,1321.6117216117216,,0,-1,1768786810.8522644
1768786810860.077,1315.018315018315,,0,-1,1768786810.860077
1768786810867.8894,1315.7509157509155,,0,-1,1768786810.8678894
1768786810875.702,1311.3553113553112,,0,-1,1768786810.875702
1768786810883.5144,1307.6923076923076,,0,-1,1768786810.8835144
1768786810891.327,1306.9597069597069,,0,-1,1768786810.891327
1768786810899.1394,1310.6227106227104,,0,-1,1768786810.8991394
1768786810906.952,1309.1575091575091,,0,-1,1768786810.906952
1768786810914.7644,1304.7619047619046,,0,-1,1768786810.9147644
1768786810922.577,1301.8315018315018,,0,-1,1768786810.922577
1768786810930.3894,1299.6336996336995,,0,-1,1768786810.9303894
1768786810938.202,1296.7032967032967,,0,-1,1768786810.938202
1768786810946.0144,1292.3076923076922,,0,-1,1768786810.9460144
1768786810953.827,1296.7032967032967,,0,-1,1768786810.953827
1768786810961.6394,1306.227106227106,,0,-1,1768786810.9616394
1768786810969.452,1313.5531135531137,,0,-1,1768786810.969452
1768786810977.2644,1320.14652014652,,0,-1,1768786810.9772644
1768786810985.077,1327.4725274725274,,0,-1,1768786810.985077
1768786810992.8894,1332.6007326007325,,0,-1,1768786810.9928894
1768786811000.702,1334.065934065934,,0,-1,1768786811.000702
1768786811008.5144,1332.6007326007325,,0,-1,1768786811.0085144
1768786811016.327,1327.4725274725274,,0,-1,1768786811.016327
1768786811024.1394,1322.3443223443223,,0,-1,1768786811.0241394
1768786811031.952,1317.9487179487178,,0,-1,1768786811.031952
1768786811039.7644,1312.087912087912,,0,-1,1768786811.0397644
1768786811047.577,1304.0293040293038,,0,-1,1768786811.047577
1768786811055.3894,1292.3076923076922,,0,-1,1768786811.0553894
1768786811063.202,1284.2490842490845,,0,-1,1768786811.063202
1768786811071.0144,1280.5860805860805,,0,-1,1768786811.0710144
1768786811078.827,1277.6556776556777,,0,-1,1768786811.078827
1768786811086.6394,1276.923076923077,,0,-1,1768786811.0866394
1768786811094.452,1277.6556776556777,,0,-1,1768786811.094452
1768786811102.2644,1281.3186813186812,,0,-1,1768786811.1022644
1768786811110.077,1284.2490842490845,,0,-1,1768786811.110077
1768786811117.8894,1287.179487179487,,0,-1,1768786811.1178894
1768786811125.702,1293.040293040293,,0,-1,1768786811.125702
1768786811133.5144,1299.6336996336995,,0,-1,1768786811.1335144
1768786811141.327,1307.6923076923076,,0,-1,1768786811.141327
1768786811149.1394,1318.6813186813183,,0,-1,1768786811.1491394
1768786811156.952,1331.135531135531,,0,-1,1768786811.156952
1768786811164.7644,1340.6593406593406,,0,-1,1768786811.1647644
1768786811172.577,1353.113553113553,,0,-1,1768786811.172577
1768786811180.3894,1364.8351648351647,,0,-1,1768786811.1803894
1768786811188.202,1378.021978021978,,0,-1,1768786811.188202
1768786811196.0144,1391.2087912087911,,0,-1,1768786811.1960144
1768786811203.827,1404.3956043956043,,0,-1,1768786811.203827
1768786811211.6394,1418.3150183150185,,0,-1,1768786811.2116394
1768786811219.452,1427.8388278388277,,0,-1,1768786811.219452
1768786811227.2644,1433.6996336996335,,0,-1,1768786811.2272644
1768786811235.077,1435.8974358974358,,0,-1,1768786811.235077
1768786811242.8894,1432.9670329670328,,0,-1,1768786811.2428894
1768786811250.702,1432.9670329670328,,0,-1,1768786811.250702
1768786811258.5144,1431.5018315018317,,0,-1,1768786811.2585144
1768786811266.327,1431.5018315018317,,0,-1,1768786811.266327
1768786811274.1394,1433.6996336996335,,0,-1,1768786811.2741394
1768786811281.952,1438.8278388278388,,0,-1,1768786811.281952
1768786811289.7644,1446.153846153846,,0,-1,1768786811.2897644
1768786811297.577,1450.5494505494505,,0,-1,1768786811.297577
1768786811305.3894,1455.6776556776556,,0,-1,1768786811.3053894
1768786811313.202,1460.805860805861,,0,-1,1768786811.313202
1768786811321.0144,1464.4688644688645,,0,-1,1768786811.3210144
1768786811328.827,1468.8644688644688,,0,-1,1768786811.328827
1768786811336.6394,1471.7948717948716,,0,-1,1768786811.3366394
1768786811344.452,1473.260073260073,,0,-1,1768786811.344452
1768786811352.2644,1471.062271062271,,0,-1,1768786811.3522644
1768786811360.077,1466.6666666666663,,0,-1,1768786811.360077
1768786811367.8894,1457.142857142857,,0,-1,1768786811.3678894
1768786811375.702,1447.6190476190477,,0,-1,1768786811.375702
1768786811383.5144,1435.8974358974358,,0,-1,1768786811.3835144
1768786811391.327,1424.175824175824,,0,-1,1768786811.391327
1768786811399.1394,1416.117216117216,,0,-1,1768786811.3991394
1768786811406.952,1412.4542124542124,,0,-1,1768786811.406952
1768786811414.7644,1412.4542124542124,,0,-1,1768786811.4147644
1768786811422.577,1414.6520146520145,,0,-1,1768786811.422577
1768786811430.3894,1416.8498168498168,,0,-1,1768786811.4303894
1768786811438.202,1413.9194139194135,,0,-1,1768786811.438202
1768786811446.0144,1410.2564102564102,,1,4,1768786811.4460144
1768786811453.827,1402.9304029304028,,1,4,1768786811.453827
1768786811461.6394,1397.069597069597,,1,4,1768786811.4616394
1768786811469.452,1391.941391941392,,1,4,1768786811.469452
1768786811477.2644,1389.0109890109889,,1,4,1768786811.4772644
1768786811485.077,1384.6153846153843,,1,4,1768786811.485077
1768786811492.8894,1380.952380952381,,1,4,1768786811.4928894
1768786811500.702,1379.4871794871794,,1,4,1768786811.500702
1768786811508.5144,1378.021978021978,,1,4,1768786811.5085144
1768786811516.327,1375.091575091575,,1,4,1768786811.516327
1768786811524.1394,1375.8241758241757,,1,4,1768786811.5241394
1768786811531.952,1372.161172161172,,1,4,1768786811.531952
1768786811539.7644,1368.4981684981683,,1,4,1768786811.5397644
1768786811547.577,1366.3003663003662,,1,4,1768786811.547577
1768786811555.3894,1366.3003663003662,,1,4,1768786811.5553894
1768786811563.202,1367.7655677655678,,1,4,1768786811.563202
1768786811571.0144,1367.7655677655678,,1,4,1768786811.5710144
1768786811578.827,1369.230769230769,,1,4,1768786811.578827
1768786811586.6394,1371.428571428571,,1,4,1768786811.5866394
1768786811594.452,1372.161172161172,,1,4,1768786811.594452
1768786811602.2644,1373.6263736263736,,1,4,1768786811.6022644
1768786811610.077,1373.6263736263736,,1,4,1768786811.610077
1768786811617.8894,1373.6263736263736,,1,4,1768786811.6178894
1768786811625.702,1375.8241758241757,,1,4,1768786811.625702
1768786811633.5144,1379.4871794871794,,1,4,1768786811.6335144
1768786811641.327,1380.2197802197802,,1,4,1768786811.641327
1768786811649.1394,1378.021978021978,,1,4,1768786811.6491394
1768786811656.952,1373.6263736263736,,1,4,1768786811.656952
1768786811664.7644,1371.428571428571,,1,4,1768786811.6647644
1768786811672.577,1368.4981684981683,,1,4,1768786811.672577
1768786811680.3894,1364.8351648351647,,1,4,1768786811.6803894
1768786811688.202,1359.7069597069597,,1,4,1768786811.688202
1768786811696.0144,1358.241758241758,,1,4,1768786811.6960144
1768786811703.827,1359.7069597069597,,1,4,1768786811.703827
1768786811711.6394,1364.102564102564,,1,4,1768786811.7116394
1768786811719.452,1368.4981684981683,,1,4,1768786811.719452
1768786811727.2644,1368.4981684981683,,1,4,1768786811.7272644
1768786811735.077,1363.3699633699632,,1,4,1768786811.735077
1768786811742.8894,1356.043956043956,,1,4,1768786811.7428894
1768786811750.702,1350.9157509157508,,1,4,1768786811.750702
1768786811758.5144,1349.4505494505493,,1,4,1768786811.7585144
1768786811766.327,1349.4505494505493,,1,4,1768786811.766327
1768786811774.1394,1350.18315018315,,1,4,1768786811.7741394
1768786811781.952,1349.4505494505493,,1,4,1768786811.781952
1768786811789.7644,1347.985347985348,,1,4,1768786811.7897644
1768786811797.577,1346.5201465201465,,1,4,1768786811.797577
1768786811805.3894,1343.5897435897434,,1,4,1768786811.8053894
1768786811813.202,1337.7289377289376,,1,4,1768786811.813202
1768786811821.0144,1333.3333333333333,,1,4,1768786811.8210144
1768786811828.827,1328.937728937729,,1,4,1768786811.828827
1768786811836.6394,1325.2747252747251,,1,4,1768786811.8366394
1768786811844.452,1326.007326007326,,1,4,1768786811.844452
1768786811852.2644,1323.076923076923,,1,4,1768786811.8522644
1768786811860.077,1310.6227106227104,,1,4,1768786811.860077
1768786811867.8894,1299.6336996336995,,1,4,1768786811.8678894
1768786811875.702,1293.7728937728937,,1,4,1768786811.875702
1768786811883.5144,1291.5750915750914,,1,4,1768786811.8835144
1768786811891.327,1290.10989010989,,1,4,1768786811.891327
1768786811899.1394,1290.8424908424909,,1,4,1768786811.8991394
1768786811906.952,1293.7728937728937,,1,4,1768786811.906952
1768786811914.7644,1300.3663003663005,,1,4,1768786811.9147644
1768786811922.577,1307.6923076923076,,1,4,1768786811.922577
1768786811930.3894,1315.018315018315,,1,4,1768786811.9303894
1768786811938.202,1316.4835164835165,,1,4,1768786811.938202
1768786811946.0144,1312.8205128205127,,1,4,1768786811.9460144
1768786811953.827,1305.4945054945051,,1,4,1768786811.953827
1768786811961.6394,1297.4358974358977,,1,4,1768786811.9616394
1768786811969.452,1288.6446886446886,,1,4,1768786811.969452
1768786811977.2644,1284.9816849816848,,1,4,1768786811.9772644
1768786811985.077,1287.9120879120878,,1,4,1768786811.985077
1768786811992.8894,1297.4358974358977,,1,4,1768786811.9928894
1768786812000.702,1306.9597069597069,,1,4,1768786812.000702
1768786812008.5144,1313.5531135531137,,1,4,1768786812.0085144
1768786812016.327,1316.4835164835165,,1,4,1768786812.016327
1768786812024.1394,1322.3443223443223,,1,4,1768786812.0241394
1768786812031.952,1324.5421245421244,,1,4,1768786812.031952
1768786812039.7644,1326.739926739927,,1,4,1768786812.0397644
1768786812047.577,1326.739926739927,,1,4,1768786812.047577
1768786812055.3894,1328.2051282051282,,1,4,1768786812.0553894
1768786812063.202,1330.4029304029302,,1,4,1768786812.063202
1768786812071.0144,1330.4029304029302,,1,4,1768786812.0710144
1768786812078.827,1328.937728937729,,1,4,1768786812.078827
1768786812086.6394,1320.14652014652,,1,4,1768786812.0866394
1768786812094.452,1313.5531135531137,,1,4,1768786812.094452
1768786812102.2644,1306.9597069597069,,1,4,1768786812.1022644
1768786812110.077,1299.6336996336995,,1,4,1768786812.110077
1768786812117.8894,1293.040293040293,,1,4,1768786812.1178894
1768786812125.702,1286.4468864468863,,1,4,1768786812.125702
1768786812133.5144,1281.3186813186812,,1,4,1768786812.1335144
1768786812141.327,1276.190476190476,,1,4,1768786812.141327
1768786812149.1394,1273.992673992674,,1,4,1768786812.1491394
1768786812156.952,1272.5274725274724,,1,4,1768786812.156952
1768786812164.7644,1271.062271062271,,1,4,1768786812.1647644
1768786812172.577,1269.5970695970695,,1,4,1768786812.172577
1768786812180.3894,1268.8644688644688,,1,4,1768786812.1803894
1768786812188.202,1268.131868131868,,1,4,1768786812.188202
1768786812196.0144,1265.9340659340658,,1,4,1768786812.1960144
1768786812203.827,1268.8644688644688,,1,4,1768786812.203827
1768786812211.6394,1273.992673992674,,1,4,1768786812.2116394
1768786812219.452,1280.5860805860805,,1,4,1768786812.219452
1768786812227.2644,1286.4468864468863,,1,4,1768786812.2272644
1768786812235.077,1292.3076923076922,,1,4,1768786812.235077
1768786812242.8894,1301.098901098901,,1,4,1768786812.2428894
1768786812250.702,1306.227106227106,,1,4,1768786812.250702
1768786812258.5144,1306.227106227106,,1,4,1768786812.2585144
1768786812266.327,1306.227106227106,,1,4,1768786812.266327
1768786812274.1394,1308.4249084249084,,1,4,1768786812.2741394
1768786812281.952,1315.018315018315,,1,4,1768786812.281952
1768786812289.7644,1323.076923076923,,1,4,1768786812.2897644
1768786812297.577,1330.4029304029302,,1,4,1768786812.297577
1768786812305.3894,1341.3919413919414,,1,4,1768786812.3053894
1768786812313.202,1354.5787545787546,,1,4,1768786812.313202
1768786812321.0144,1366.3003663003662,,1,4,1768786812.3210144
1768786812328.827,1375.8241758241757,,1,4,1768786812.328827
1768786812336.6394,1382.4175824175825,,1,4,1768786812.3366394
1768786812344.452,1387.5457875457876,,1,4,1768786812.344452
1768786812352.2644,1391.941391941392,,1,4,1768786812.3522644
1768786812360.077,1396.3369963369962,,1,4,1768786812.360077
1768786812367.8894,1400.7326007326003,,1,4,1768786812.3678894
1768786812375.702,1405.128205128205,,1,4,1768786812.375702
1768786812383.5144,1408.7912087912086,,1,4,1768786812.3835144
1768786812391.327,1409.5238095238094,,1,4,1768786812.391327
1768786812399.1394,1405.128205128205,,1,4,1768786812.3991394
1768786812406.952,1400.7326007326003,,1,4,1768786812.406952
1768786812414.7644,1392.6739926739926,,1,4,1768786812.4147644
1768786812422.577,1383.8827838827838,,1,4,1768786812.422577
1768786812430.3894,1379.4871794871794,,1,4,1768786812.4303894
1768786812438.202,1378.7545787545787,,1,4,1768786812.438202
1768786812446.0144,1380.2197802197802,,1,4,1768786812.4460144
1768786812453.827,1380.952380952381,,1,4,1768786812.453827
1768786812461.6394,1382.4175824175825,,1,4,1768786812.4616394
1768786812469.452,1382.4175824175825,,1,4,1768786812.469452
1768786812477.2644,1385.3479853479853,,1,4,1768786812.4772644
1768786812485.077,1387.5457875457876,,1,4,1768786812.485077
1768786812492.8894,1391.2087912087911,,1,4,1768786812.4928894
1768786812500.702,1394.139194139194,,1,4,1768786812.500702
1768786812508.5144,1391.2087912087911,,1,4,1768786812.5085144
1768786812516.327,1387.5457875457876,,1,4,1768786812.516327
1768786812524.1394,1382.4175824175825,,1,4,1768786812.5241394
1768786812531.952,1379.4871794871794,,1,4,1768786812.531952
1768786812539.7644,1375.8241758241757,,1,4,1768786812.5397644
1768786812547.577,1372.161172161172,,1,4,1768786812.547577
1768786812555.3894,1370.6959706959706,,1,4,1768786812.5553894
1768786812563.202,1369.230769230769,,1,4,1768786812.563202
1768786812571.0144,1367.7655677655678,,1,4,1768786812.5710144
1768786812578.827,1365.5677655677655,,1,4,1768786812.578827
1768786812586.6394,1362.6373626373625,,1,4,1768786812.5866394
1768786812594.452,1358.974358974359,,1,4,1768786812.594452
1768786812602.2644,1354.5787545787546,,1,4,1768786812.6022644
1768786812610.077,1352.3809523809523,,1,4,1768786812.610077
1768786812617.8894,1350.9157509157508,,1,4,1768786812.6178894
1768786812625.702,1345.054945054945,,1,4,1768786812.625702
1768786812633.5144,1337.7289377289376,,1,4,1768786812.6335144
1768786812641.327,1329.6703296703297,,1,4,1768786812.641327
1768786812649.1394,1323.8095238095236,,1,4,1768786812.6491394
1768786812656.952,1322.3443223443223,,1,4,1768786812.656952
1768786812664.7644,1319.4139194139193,,1,4,1768786812.6647644
1768786812672.577,1319.4139194139193,,1,4,1768786812.672577
1768786812680.3894,1323.076923076923,,1,4,1768786812.6803894
1768786812688.202,1330.4029304029302,,1,4,1768786812.688202
1768786812696.0144,1339.194139194139,,1,4,1768786812.6960144
1768786812703.827,1348.7179487179487,,1,4,1768786812.703827
1768786812711.6394,1355.311355311355,,1,4,1768786812.7116394
1768786812719.452,1361.1721611721612,,1,4,1768786812.719452
1768786812727.2644,1369.230769230769,,1,4,1768786812.7272644
1768786812735.077,1379.4871794871794,,1,4,1768786812.735077
1768786812742.8894,1384.6153846153843,,1,4,1768786812.7428894
