Shimmer_6815_Timestamp_Unix_CAL,Shimmer_6815_PPG_A13_CAL,Unnamed: 2,inhale,inhale_id,epoch_sec
1768794448749.3591,61.53846153846153,,1,0,1768794448.7493591
1768794448757.1716,165.56776556776555,,1,0,1768794448.7571716
1768794448764.984,282.05128205128204,,1,0,1768794448.764984
1768794448772.7966,407.3260073260073,,1,0,1768794448.7727966
1768794448780.6091,531.8681318681319,,1,0,1768794448.7806091
1768794448788.4216,643.9560439560439,,1,0,1768794448.7884216
1768794448796.234,745.7875457875457,,1,0,1768794448.796234
1768794448804.0466,832.2344322344322,,1,0,1768794448.8040466
1768794448811.8591,904.7619047619048,,1,0,1768794448.8118591
1768794448819.6716,967.032967032967,,1,0,1768794448.8196716
1768794448827.484,1015.3846153846154,,1,0,1768794448.827484
1768794448835.2966,1058.6080586080586,,1,0,1768794448.8352966
1768794448843.1091,1093.7728937728937,,1,0,1768794448.8431091
1768794448850.9216,1121.6117216117216,,1,0,1768794448.8509216
1768794448858.734,1143.5897435897434,,1,0,1768794448.858734
1768794448866.5466,1164.102564102564,,1,0,1768794448.8665466
1768794448874.3591,1177.2893772893772,,1,0,1768794448.8743591
1768794448882.1716,1191.941391941392,,1,0,1768794448.8821716
1768794448889.984,1200.0,,1,0,1768794448.889984
1768794448897.7966,1201.4652014652013,,1,0,1768794448.8977966
1768794448905.6091,1202.9304029304028,,1,0,1768794448.9056091
1768794448913.4216,1197.069597069597,,1,0,1768794448.9134216
1768794448921.234,1197.069597069597,,1,0,1768794448.921234
1768794448929.0466,1193.4065934065934,,1,0,1768794448.9290466
1768794448936.8591,1197.069597069597,,1,0,1768794448.9368591
1768794448944.6716,1195.6043956043954,,1,0,1768794448.9446716
1768794448952.484,1195.6043956043954,,1,0,1768794448.952484
1768794448960.2966,1191.941391941392,,1,0,1768794448.9602966
1768794448968.1091,1186.080586080586,,1,0,1768794448.9681091
1768794448975.9216,1188.278388278388,,1,0,1768794448.9759216
1768794448983.734,1187.5457875457876,,1,0,1768794448.983734
1768794448991.5466,1188.278388278388,,1,0,1768794448.9915466
1768794448999.3591,1191.941391941392,,1,0,1768794448.9993591
1768794449007.1716,1205.128205128205,,1,0,1768794449.0071716
1768794449014.984,1217.5824175824175,,1,0,1768794449.014984
1768794449022.7966,1238.8278388278388,,1,0,1768794449.0227966
1768794449030.6091,1253.479853479853,,1,0,1768794449.0306091
1768794449038.4216,1266.6666666666663,,1,0,1768794449.0384216
1768794449046.234,1276.923076923077,,1,0,1768794449.046234
1768794449054.0466,1282.7838827838827,,1,0,1768794449.0540466
1768794449061.8591,1296.7032967032967,,1,0,1768794449.0618591
1768794449069.6716,1307.6923076923076,,1,0,1768794449.0696716
1768794449077.484,1326.007326007326,,1,0,1768794449.077484
1768794449085.2966,1337.7289377289376,,1,0,1768794449.0852966
1768794449093.1091,1347.985347985348,,1,0,1768794449.0931091
1768794449100.9216,1354.5787545787546,,1,0,1768794449.1009216
1768794449108.734,1356.043956043956,,1,0,1768794449.108734
1768794449116.5466,1352.3809523809523,,1,0,1768794449.1165466
1768794449124.3591,1350.9157509157508,,1,0,1768794449.1243591
1768794449132.1716,1347.985347985348,,1,0,1768794449.1321716
1768794449139.984,1339.92673992674,,1,0,1768794449.139984
1768794449147.7966,1332.6007326007325,,1,0,1768794449.1477966
1768794449155.6091,1327.4725274725274,,1,0,1768794449.1556091
1768794449163.4216,1328.2051282051282,,1,0,1768794449.1634216
1768794449171.234,1332.6007326007325,,1,0,1768794449.171234
1768794449179.0466,1340.6593406593406,,1,0,1768794449.1790466
1768794449186.8591,1347.985347985348,,1,0,1768794449.1868591
1768794449194.6716,1352.3809523809523,,1,0,1768794449.1946716
1768794449202.484,1357.5091575091574,,1,0,1768794449.202484
1768794449210.2966,1364.8351648351647,,1,0,1768794449.2102966
1768794449218.1091,1372.8937728937728,,1,0,1768794449.2181091
1768794449225.9216,1384.6153846153843,,1,0,1768794449.2259216
1768794449233.734,1392.6739926739926,,1,0,1768794449.233734
1768794449241.5466,1399.2673992673992,,1,0,1768794449.2415466
1768794449249.3591,1402.9304029304028,,1,0,1768794449.2493591
1768794449257.1716,1409.5238095238094,,1,0,1768794449.2571716
1768794449264.984,1417.5824175824175,,1,0,1768794449.264984
1768794449272.7966,1421.245421245421,,1,0,1768794449.2727966
1768794449280.6091,1422.7106227106226,,1,0,1768794449.2806091
1768794449288.4216,1415.3846153846152,,1,0,1768794449.2884216
1768794449296.234,1408.7912087912086,,1,0,1768794449.296234
1768794449304.0466,1403.6630036630036,,1,0,1768794449.3040466
1768794449311.8591,1401.4652014652013,,1,0,1768794449.3118591
1768794449319.6716,1402.197802197802,,1,0,1768794449.3196716
1768794449327.484,1403.6630036630036,,1,0,1768794449.327484
1768794449335.2966,1402.197802197802,,1,0,1768794449.3352966
1768794449343.1091,1400.0,,1,0,1768794449.3431091
1768794449350.9216,1397.069597069597,,1,0,1768794449.3509216
1768794449358.734,1396.3369963369962,,1,0,1768794449.358734
1768794449366.5466,1391.941391941392,,1,0,1768794449.3665466
1768794449374.3591,1387.5457875457876,,1,0,1768794449.3743591
1768794449382.1716,1384.6153846153843,,1,0,1768794449.3821716
1768794449389.984,1383.8827838827838,,1,0,1768794449.389984
1768794449397.7966,1384.6153846153843,,1,0,1768794449.3977966
1768794449405.6091,1382.4175824175825,,1,0,1768794449.4056091
1768794449413.4216,1381.6849816849815,,1,0,1768794449.4134216
1768794449421.234,1380.2197802197802,,1,0,1768794449.421234
1768794449429.0466,1380.952380952381,,1,0,1768794449.4290466
1768794449436.8591,1378.021978021978,,1,0,1768794449.4368591
1768794449444.6716,1371.428571428571,,1,0,1768794449.4446716
1768794449452.484,1368.4981684981683,,1,0,1768794449.452484
1768794449460.2966,1363.3699633699632,,1,0,1768794449.4602966
1768794449468.1091,1356.7765567765566,,1,0,1768794449.4681091
1768794449475.9216,1346.5201465201465,,1,0,1768794449.4759216
1768794449483.734,1336.9963369963368,,1,0,1768794449.483734
1768794449491.5466,1331.8681318681315,,1,0,1768794449.4915466
1768794449499.3591,1330.4029304029302,,1,0,1768794449.4993591
1768794449507.1716,1334.065934065934,,1,0,1768794449.5071716
1768794449514.984,1337.7289377289376,,1,0,1768794449.514984
1768794449522.7966,1337.7289377289376,,1,0,1768794449.5227966
1768794449530.6091,1334.065934065934,,1,0,1768794449.5306091
1768794449538.4216,1328.937728937729,,1,0,1768794449.5384216
1768794449546.234,1324.5421245421244,,1,0,1768794449.546234
1768794449554.0466,1320.8791208791208,,1,0,1768794449.5540466
1768794449561.8591,1319.4139194139193,,1,0,1768794449.5618591
1768794449569.6716,1318.6813186813183,,1,0,1768794449.5696716
1768794449577.484,1319.4139194139193,,1,0,1768794449.577484
1768794449585.2966,1320.14652014652,,1,0,1768794449.5852966
1768794449593.1091,1318.6813186813183,,1,0,1768794449.5931091
1768794449600.9216,1315.018315018315,,1,0,1768794449.6009216
1768794449608.734,1313.5531135531137,,1,0,1768794449.608734
1768794449616.5466,1314.2857142857142,,1,0,1768794449.6165466
1768794449624.3591,1315.7509157509155,,1,0,1768794449.6243591
1768794449632.1716,1314.2857142857142,,1,0,1768794449.6321716
1768794449639.984,1313.5531135531137,,1,0,1768794449.639984
1768794449647.7966,1315.7509157509155,,1,0,1768794449.6477966
1768794449655.6091,1324.5421245421244,,1,0,1768794449.6556091
1768794449663.4216,1331.8681318681315,,1,0,1768794449.6634216
1768794449671.234,1336.263736263736,,1,0,1768794449.671234
1768794449679.0466,1334.7985347985348,,1,0,1768794449.6790466
1768794449686.8591,1328.2051282051282,,1,0,1768794449.6868591
1768794449694.6716,1321.6117216117216,,1,0,1768794449.6946716
1768794449702.484,1316.4835164835165,,1,0,1768794449.702484
1768794449710.2966,1306.227106227106,,1,0,1768794449.7102966
1768794449718.1091,1293.040293040293,,1,0,1768794449.7181091
1768794449725.9216,1277.6556776556777,,1,0,1768794449.7259216
1768794449733.734,1269.5970695970695,,1,0,1768794449.733734
1768794449741.5466,1262.2710622710622,,1,0,1768794449.7415466
1768794449749.3896,1256.4102564102564,,1,0,1768794449.7493896
1768794449757.1716,1251.2820512820513,,1,0,1768794449.7571716
1768794449764.984,1248.3516483516482,,1,0,1768794449.764984
1768794449772.7966,1247.6190476190477,,1,0,1768794449.7727966
1768794449780.6091,1250.5494505494505,,0,-1,1768794449.7806091
1768794449788.4216,1260.07326007326,,0,-1,1768794449.7884216
1768794449796.234,1272.5274725274724,,0,-1,1768794449.796234
1768794449804.0466,1285.7142857142856,,0,-1,1768794449.8040466
1768794449811.8591,1297.4358974358977,,0,-1,1768794449.8118591
1768794449819.6716,1310.6227106227104,,0,-1,1768794449.8196716
1768794449827.484,1322.3443223443223,,0,-1,1768794449.827484
1768794449835.2966,1333.3333333333333,,0,-1,1768794449.8352966
1768794449843.1091,1340.6593406593406,,0,-1,1768794449.8431091
1768794449850.9216,1353.113553113553,,0,-1,1768794449.8509216
1768794449858.734,1367.032967032967,,0,-1,1768794449.858734
1768794449866.5466,1380.2197802197802,,0,-1,1768794449.8665466
1768794449874.3591,1387.5457875457876,,0,-1,1768794449.8743591
1768794449882.1716,1393.4065934065934,,0,-1,1768794449.8821716
1768794449889.984,1397.069597069597,,0,-1,1768794449.889984
1768794449897.7966,1401.4652014652013,,0,-1,1768794449.8977966
1768794449905.6091,1402.9304029304028,,0,-1,1768794449.9056091
1768794449913.4216,1408.7912087912086,,0,-1,1768794449.9134216
1768794449921.234,1416.117216117216,,0,-1,1768794449.921234
1768794449929.0466,1417.5824175824175,,0,-1,1768794449.9290466
1768794449936.8591,1417.5824175824175,,0,-1,1768794449.9368591
1768794449944.6716,1418.3150183150185,,0,-1,1768794449.9446716
1768794449952.484,1419.7802197802198,,0,-1,1768794449.952484
1768794449960.2966,1419.7802197802198,,0,-1,1768794449.9602966
1768794449968.1091,1420.5128205128203,,0,-1,1768794449.9681091
1768794449975.9216,1424.9084249084249,,0,-1,1768794449.9759216
1768794449983.734,1424.9084249084249,,0,-1,1768794449.983734
1768794449991.5466,1420.5128205128203,,0,-1,1768794449.9915466
1768794449999.3591,1421.9780219780218,,0,-1,1768794449.9993591
1768794450007.1716,1425.6410256410256,,0,-1,1768794450.0071716
1768794450014.984,1426.3736263736262,,0,-1,1768794450.014984
1768794450022.7966,1426.3736263736262,,0,-1,1768794450.0227966
1768794450030.6091,1427.106227106227,,0,-1,1768794450.0306091
1768794450038.4216,1424.175824175824,,0,-1,1768794450.0384216
1768794450046.234,1424.9084249084249,,0,-1,1768794450.046234
1768794450054.0466,1424.9084249084249,,0,-1,1768794450.0540466
1768794450061.8591,1423.4432234432234,,0,-1,1768794450.0618591
1768794450069.6716,1421.9780219780218,,0,-1,1768794450.0696716
1768794450077.484,1422.7106227106226,,0,-1,1768794450.077484
1768794450085.2966,1419.047619047619,,0,-1,1768794450.0852966
1768794450093.1091,1413.9194139194135,,0,-1,1768794450.0931091
1768794450100.9216,1402.197802197802,,0,-1,1768794450.1009216
1768794450108.734,1399.2673992673992,,0,-1,1768794450.108734
1768794450116.5466,1395.6043956043954,,0,-1,1768794450.1165466
1768794450124.3591,1400.7326007326003,,0,-1,1768794450.1243591
1768794450132.1716,1401.4652014652013,,0,-1,1768794450.1321716
1768794450139.984,1403.6630036630036,,0,-1,1768794450.139984
1768794450147.7966,1398.5347985347985,,0,-1,1768794450.1477966
1768794450155.6091,1397.069597069597,,0,-1,1768794450.1556091
1768794450163.4216,1396.3369963369962,,0,-1,1768794450.1634216
1768794450171.234,1395.6043956043954,,0,-1,1768794450.171234
1768794450179.0466,1400.7326007326003,,0,-1,1768794450.1790466
1768794450186.8591,1397.8021978021975,,0,-1,1768794450.1868591
1768794450194.6716,1399.2673992673992,,0,-1,1768794450.1946716
1768794450202.484,1394.8717948717947,,0,-1,1768794450.202484
1768794450210.2966,1396.3369963369962,,0,-1,1768794450.2102966
1768794450218.1091,1398.5347985347985,,0,-1,1768794450.2181091
1768794450225.9216,1397.8021978021975,,0,-1,1768794450.2259216
1768794450233.734,1393.4065934065934,,0,-1,1768794450.233734
1768794450241.5466,1386.080586080586,,0,-1,1768794450.2415466
1768794450249.3591,1379.4871794871794,,0,-1,1768794450.2493591
1768794450257.1716,1378.7545787545787,,0,-1,1768794450.2571716
1768794450264.984,1375.091575091575,,0,-1,1768794450.264984
1768794450272.7966,1375.8241758241757,,0,-1,1768794450.2727966
1768794450280.6091,1372.8937728937728,,0,-1,1768794450.2806091
1768794450288.4216,1373.6263736263736,,0,-1,1768794450.2884216
1768794450296.234,1372.8937728937728,,0,-1,1768794450.296234
1768794450304.0466,1375.8241758241757,,0,-1,1768794450.3040466
1768794450311.8591,1370.6959706959706,,0,-1,1768794450.3118591
1768794450319.6716,1372.161172161172,,0,-1,1768794450.3196716
1768794450327.484,1369.9633699633698,,0,-1,1768794450.327484
1768794450335.2966,1369.9633699633698,,0,-1,1768794450.3352966
1768794450343.1091,1367.032967032967,,0,-1,1768794450.3431091
1768794450350.9216,1364.102564102564,,0,-1,1768794450.3509216
1768794450358.734,1361.904761904762,,0,-1,1768794450.358734
1768794450366.5466,1356.7765567765566,,0,-1,1768794450.3665466
1768794450374.3591,1353.8461538461538,,0,-1,1768794450.3743591
1768794450382.1716,1355.311355311355,,0,-1,1768794450.3821716
1768794450389.984,1353.8461538461538,,0,-1,1768794450.389984
1768794450397.7966,1350.9157509157508,,0,-1,1768794450.3977966
1768794450405.6091,1350.18315018315,,0,-1,1768794450.4056091
1768794450413.4216,1350.9157509157508,,0,-1,1768794450.4134216
1768794450421.234,1345.7875457875457,,0,-1,1768794450.421234
1768794450429.0466,1344.3223443223442,,0,-1,1768794450.4290466
1768794450436.8591,1345.054945054945,,0,-1,1768794450.4368591
1768794450444.6716,1339.194139194139,,0,-1,1768794450.4446716
1768794450452.484,1334.065934065934,,0,-1,1768794450.452484
1768794450460.2966,1330.4029304029302,,0,-1,1768794450.4602966
1768794450468.1091,1330.4029304029302,,0,-1,1768794450.4681091
1768794450475.9216,1328.2051282051282,,0,-1,1768794450.4759216
1768794450483.734,1321.6117216117216,,0,-1,1768794450.483734
1768794450491.5466,1322.3443223443223,,0,-1,1768794450.4915466
1768794450499.3591,1320.14652014652,,0,-1,1768794450.4993591
1768794450507.1716,1317.216117216117,,0,-1,1768794450.5071716
1768794450514.984,1315.018315018315,,0,-1,1768794450.514984
1768794450522.7966,1315.018315018315,,0,-1,1768794450.5227966
1768794450530.6091,1313.5531135531137,,0,-1,1768794450.5306091
1768794450538.4216,1311.3553113553112,,0,-1,1768794450.5384216
1768794450546.234,1312.8205128205127,,0,-1,1768794450.546234
1768794450554.0466,1317.216117216117,,0,-1,1768794450.5540466
1768794450561.8591,1317.9487179487178,,0,-1,1768794450.5618591
1768794450569.6716,1318.6813186813183,,0,-1,1768794450.5696716
1768794450577.484,1322.3443223443223,,0,-1,1768794450.577484
1768794450585.2966,1324.5421245421244,,0,-1,1768794450.5852966
1768794450593.1091,1328.937728937729,,0,-1,1768794450.5931091
1768794450600.9216,1333.3333333333333,,0,-1,1768794450.6009216
1768794450608.734,1336.9963369963368,,0,-1,1768794450.608734
1768794450616.5466,1345.054945054945,,0,-1,1768794450.6165466
1768794450624.3591,1354.5787545787546,,0,-1,1768794450.6243591
1768794450632.1716,1363.3699633699632,,0,-1,1768794450.6321716
1768794450639.984,1378.7545787545787,,0,-1,1768794450.639984
1768794450647.7966,1395.6043956043954,,0,-1,1768794450.6477966
1768794450655.6091,1412.4542124542124,,0,-1,1768794450.6556091
1768794450663.4216,1427.106227106227,,0,-1,1768794450.6634216
1768794450671.234,1441.7582417582416,,0,-1,1768794450.671234
1768794450679.0466,1449.084249084249,,0,-1,1768794450.6790466
1768794450686.8591,1452.014652014652,,0,-1,1768794450.6868591
1768794450694.6716,1454.9450549450548,,0,-1,1768794450.6946716
1768794450702.484,1456.4102564102564,,0,-1,1768794450.702484
1768794450710.2966,1460.805860805861,,0,-1,1768794450.7102966
1768794450718.1091,1466.6666666666663,,0,-1,1768794450.7181091
1768794450725.9216,1473.260073260073,,0,-1,1768794450.7259216
1768794450733.734,1475.4578754578754,,0,-1,1768794450.733734
1768794450741.5466,1475.4578754578754,,0,-1,1768794450.7415466
1768794450749.3591,1474.7252747252746,,0,-1,1768794450.7493591
1768794450757.1716,1476.923076923077,,0,-1,1768794450.7571716
1768794450764.984,1484.9816849816848,,0,-1,1768794450.764984
1768794450772.7966,1490.8424908424906,,0,-1,1768794450.7727966
1768794450780.6091,1497.4358974358972,,0,-1,1768794450.7806091
1768794450788.4216,1506.227106227106,,0,-1,1768794450.7884216
1768794450796.234,1514.2857142857142,,0,-1,1768794450.796234
1768794450804.0466,1519.4139194139193,,0,-1,1768794450.8040466
1768794450811.8591,1523.8095238095236,,0,-1,1768794450.8118591
1768794450819.6716,1526.739926739927,,0,-1,1768794450.8196716
1768794450827.484,1522.3443223443223,,0,-1,1768794450.827484
1768794450835.2966,1519.4139194139193,,0,-1,1768794450.8352966
1768794450843.1091,1516.4835164835165,,0,-1,1768794450.8431091
1768794450850.9216,1511.3553113553112,,0,-1,1768794450.8509216
1768794450858.734,1505.4945054945051,,0,-1,1768794450.858734
1768794450866.5466,1501.098901098901,,0,-1,1768794450.8665466
1768794450874.3591,1497.4358974358972,,0,-1,1768794450.8743591
1768794450882.1716,1496.7032967032967,,0,-1,1768794450.8821716
1768794450889.984,1495.970695970696,,0,-1,1768794450.889984
1768794450897.7966,1495.2380952380952,,0,-1,1768794450.8977966
1768794450905.6091,1495.2380952380952,,0,-1,1768794450.9056091
1768794450913.4216,1496.7032967032967,,0,-1,1768794450.9134216
1768794450921.234,1497.4358974358972,,0,-1,1768794450.921234
1768794450929.0466,1498.9010989010987,,0,-1,1768794450.9290466
1768794450936.8591,1503.2967032967033,,0,-1,1768794450.9368591
1768794450944.6716,1505.4945054945051,,0,-1,1768794450.9446716
1768794450952.484,1505.4945054945051,,0,-1,1768794450.952484
1768794450960.2966,1504.7619047619046,,0,-1,1768794450.9602966
1768794450968.1091,1504.0293040293038,,0,-1,1768794450.9681091
1768794450975.9216,1503.2967032967033,,0,-1,1768794450.9759216
1768794450983.734,1501.8315018315018,,0,-1,1768794450.983734
1768794450991.5466,1501.098901098901,,0,-1,1768794450.9915466
1768794450999.3591,1500.3663003663005,,0,-1,1768794450.9993591
1768794451007.1716,1500.3663003663005,,0,-1,1768794451.0071716
1768794451014.984,1500.3663003663005,,0,-1,1768794451.014984
1768794451022.7966,1498.168498168498,,0,-1,1768794451.0227966
1768794451030.6091,1495.2380952380952,,0,-1,1768794451.0306091
1768794451038.4216,1490.8424908424906,,0,-1,1768794451.0384216
1768794451046.234,1484.2490842490845,,0,-1,1768794451.046234
1768794451054.0466,1476.190476190476,,0,-1,1768794451.0540466
1768794451061.8591,1465.9340659340658,,0,-1,1768794451.0618591
1768794451069.6716,1456.4102564102564,,0,-1,1768794451.0696716
1768794451077.484,1449.084249084249,,0,-1,1768794451.077484
1768794451085.2966,1443.2234432234432,,0,-1,1768794451.0852966
1768794451093.1091,1437.362637362637,,0,-1,1768794451.0931091
1768794451100.9216,1430.03663003663,,0,-1,1768794451.1009216
1768794451108.734,1416.8498168498168,,0,-1,1768794451.108734
1768794451116.5466,1406.5934065934066,,0,-1,1768794451.1165466
1768794451124.3591,1394.139194139194,,0,-1,1768794451.1243591
1768794451132.1716,1382.4175824175825,,0,-1,1768794451.1321716
1768794451139.984,1368.4981684981683,,0,-1,1768794451.139984
1768794451147.7966,1355.311355311355,,0,-1,1768794451.1477966
1768794451155.6091,1347.985347985348,,0,-1,1768794451.1556091
1768794451163.4216,1345.054945054945,,0,-1,1768794451.1634216
1768794451171.234,1342.857142857143,,0,-1,1768794451.171234
1768794451179.0466,1340.6593406593406,,0,-1,1768794451.1790466
1768794451186.8591,1336.9963369963368,,0,-1,1768794451.1868591
1768794451194.6716,1334.065934065934,,0,-1,1768794451.1946716
1768794451202.484,1335.5311355311355,,0,-1,1768794451.202484
1768794451210.2966,1339.92673992674,,0,-1,1768794451.2102966
1768794451218.1091,1346.5201465201465,,0,-1,1768794451.2181091
1768794451225.9216,1350.9157509157508,,0,-1,1768794451.2259216
1768794451233.734,1353.8461538461538,,0,-1,1768794451.233734
1768794451241.5466,1358.241758241758,,0,-1,1768794451.2415466
1768794451249.3591,1361.1721611721612,,0,-1,1768794451.2493591
1768794451257.1716,1364.8351648351647,,0,-1,1768794451.2571716
1768794451264.984,1366.3003663003662,,0,-1,1768794451.264984
1768794451272.7966,1365.5677655677655,,0,-1,1768794451.2727966
1768794451280.6091,1361.904761904762,,0,-1,1768794451.2806091
1768794451288.4216,1356.7765567765566,,0,-1,1768794451.2884216
1768794451296.234,1353.113553113553,,0,-1,1768794451.296234
1768794451304.0466,1347.985347985348,,0,-1,1768794451.3040466
1768794451311.8591,1340.6593406593406,,0,-1,1768794451.3118591
1768794451319.6716,1336.9963369963368,,0,-1,1768794451.3196716
1768794451327.484,1335.5311355311355,,0,-1,1768794451.327484
1768794451335.2966,1334.065934065934,,0,-1,1768794451.3352966
1768794451343.1091,1332.6007326007325,,0,-1,1768794451.3431091
1768794451350.9216,1331.8681318681315,,0,-1,1768794451.3509216
1768794451358.734,1334.065934065934,,0,-1,1768794451.358734
1768794451366.5466,1336.263736263736,,0,-1,1768794451.3665466
1768794451374.3591,1335.5311355311355,,0,-1,1768794451.3743591
1768794451382.1716,1334.065934065934,,0,-1,1768794451.3821716
1768794451389.984,1336.263736263736,,0,-1,1768794451.389984
1768794451397.7966,1338.4615384615383,,0,-1,1768794451.3977966
1768794451405.6091,1339.92673992674,,0,-1,1768794451.4056091
1768794451413.4216,1345.054945054945,,0,-1,1768794451.4134216
1768794451421.234,1342.857142857143,,0,-1,1768794451.421234
1768794451429.0466,1343.5897435897434,,0,-1,1768794451.4290466
1768794451436.8591,1337.7289377289376,,0,-1,1768794451.4368591
1768794451444.6716,1328.937728937729,,0,-1,1768794451.4446716
1768794451452.484,1323.076923076923,,0,-1,1768794451.452484
1768794451460.2966,1319.4139194139193,,0,-1,1768794451.4602966
1768794451468.1091,1314.2857142857142,,0,-1,1768794451.4681091
1768794451475.9216,1316.4835164835165,,0,-1,1768794451.4759216
1768794451483.734,1320.8791208791208,,0,-1,1768794451.483734
1768794451491.5466,1327.4725274725274,,0,-1,1768794451.4915466
1768794451499.3591,1339.194139194139,,0,-1,1768794451.4993591
1768794451507.1716,1346.5201465201465,,0,-1,1768794451.5071716
1768794451514.984,1355.311355311355,,0,-1,1768794451.514984
1768794451522.7966,1364.102564102564,,0,-1,1768794451.5227966
1768794451530.6091,1366.3003663003662,,0,-1,1768794451.5306091
1768794451538.4216,1371.428571428571,,0,-1,1768794451.5384216
1768794451546.234,1374.3589743589744,,0,-1,1768794451.546234
1768794451554.0466,1376.5567765567764,,0,-1,1768794451.5540466
1768794451561.8591,1382.4175824175825,,0,-1,1768794451.5618591
1768794451569.6716,1387.5457875457876,,0,-1,1768794451.5696716
1768794451577.484,1397.8021978021975,,0,-1,1768794451.577484
1768794451585.2966,1404.3956043956043,,0,-1,1768794451.5852966
1768794451593.1091,1414.6520146520145,,0,-1,1768794451.5931091
1768794451600.9216,1419.047619047619,,0,-1,1768794451.6009216
1768794451608.734,1425.6410256410256,,0,-1,1768794451.608734
1768794451616.5466,1426.3736263736262,,0,-1,1768794451.6165466
1768794451624.3591,1429.3040293040292,,0,-1,1768794451.6243591
1768794451632.1716,1432.2344322344322,,0,-1,1768794451.6321716
1768794451639.984,1433.6996336996335,,0,-1,1768794451.639984
1768794451647.7966,1438.095238095238,,0,-1,1768794451.6477966
1768794451655.6091,1438.8278388278388,,0,-1,1768794451.6556091
1768794451663.4216,1441.7582417582416,,0,-1,1768794451.6634216
1768794451671.234,1443.2234432234432,,0,-1,1768794451.671234
1768794451679.0466,1450.5494505494505,,0,-1,1768794451.6790466
1768794451686.8591,1454.212454212454,,0,-1,1768794451.6868591
1768794451694.6716,1454.9450549450548,,0,-1,1768794451.6946716
1768794451702.484,1453.479853479853,,0,-1,1768794451.702484
1768794451710.2966,1453.479853479853,,0,-1,1768794451.7102966
1768794451718.1091,1456.4102564102564,,0,-1,1768794451.7181091
1768794451725.9216,1462.2710622710622,,0,-1,1768794451.7259216
1768794451733.734,1471.062271062271,,0,-1,1768794451.733734
1768794451741.5466,1474.7252747252746,,0,-1,1768794451.7415466
1768794451749.3591,1480.5860805860805,,0,-1,1768794451.7493591
1768794451757.1716,1479.8534798534797,,0,-1,1768794451.7571716
1768794451764.984,1480.5860805860805,,0,-1,1768794451.764984
1768794451772.7966,1474.7252747252746,,0,-1,1768794451.7727966
1768794451780.6091,1471.7948717948716,,0,-1,1768794451.7806091
1768794451788.4216,1466.6666666666663,,0,-1,1768794451.7884216
1768794451796.234,1462.2710622710622,,0,-1,1768794451.796234
1768794451804.0466,1460.07326007326,,0,-1,1768794451.8040466
1768794451811.8591,1453.479853479853,,0,-1,1768794451.8118591
1768794451819.6716,1454.9450549450548,,0,-1,1768794451.8196716
1768794451827.484,1451.2820512820513,,0,-1,1768794451.827484
1768794451835.2966,1454.9450549450548,,0,-1,1768794451.8352966
1768794451843.1091,1455.6776556776556,,0,-1,1768794451.8431091
1768794451850.9216,1460.805860805861,,0,-1,1768794451.8509216
1768794451858.734,1460.07326007326,,0,-1,1768794451.858734
1768794451866.5466,1463.7362637362637,,0,-1,1768794451.8665466
1768794451874.3591,1461.5384615384614,,0,-1,1768794451.8743591
1768794451882.1716,1460.805860805861,,0,-1,1768794451.8821716
1768794451889.984,1453.479853479853,,0,-1,1768794451.889984
1768794451897.7966,1443.956043956044,,0,-1,1768794451.8977966
1768794451905.6091,1438.095238095238,,0,-1,1768794451.9056091
1768794451913.4216,1439.5604395604394,,0,-1,1768794451.9134216
1768794451921.234,1440.29304029304,,0,-1,1768794451.921234
1768794451929.0466,1435.8974358974358,,0,-1,1768794451.9290466
1768794451936.8591,1432.2344322344322,,0,-1,1768794451.9368591
1768794451944.6716,1432.2344322344322,,0,-1,1768794451.9446716
1768794451952.484,1432.9670329670328,,0,-1,1768794451.952484
1768794451960.2966,1430.7692307692307,,0,-1,1768794451.9602966
1768794451968.1091,1430.7692307692307,,0,-1,1768794451.9681091
1768794451975.9216,1434.4322344322345,,0,-1,1768794451.9759216
1768794451983.734,1430.7692307692307,,0,-1,1768794451.983734
1768794451991.5466,1428.5714285714284,,0,-1,1768794451.9915466
1768794451999.3591,1420.5128205128203,,0,-1,1768794451.9993591
1768794452007.1716,1411.7216117216117,,0,-1,1768794452.0071716
1768794452014.984,1407.3260073260071,,0,-1,1768794452.014984
1768794452022.7966,1400.0,,0,-1,1768794452.0227966
1768794452030.6091,1392.6739926739926,,0,-1,1768794452.0306091
1768794452038.4216,1389.0109890109889,,0,-1,1768794452.0384216
1768794452046.234,1386.080586080586,,0,-1,1768794452.046234
1768794452054.0466,1381.6849816849815,,0,-1,1768794452.0540466
1768794452061.8591,1379.4871794871794,,0,-1,1768794452.0618591
1768794452069.6716,1373.6263736263736,,0,-1,1768794452.0696716
1768794452077.484,1367.7655677655678,,0,-1,1768794452.077484
1768794452085.2966,1366.3003663003662,,0,-1,1768794452.0852966
1768794452093.1091,1358.241758241758,,0,-1,1768794452.0931091
1768794452100.9216,1352.3809523809523,,0,-1,1768794452.1009216
1768794452108.734,1349.4505494505493,,0,-1,1768794452.108734
1768794452116.5466,1345.7875457875457,,0,-1,1768794452.1165466
1768794452124.3591,1345.7875457875457,,0,-1,1768794452.1243591
1768794452132.1716,1349.4505494505493,,0,-1,1768794452.1321716
1768794452139.984,1355.311355311355,,0,-1,1768794452.139984
1768794452147.7966,1356.7765567765566,,0,-1,1768794452.1477966
1768794452155.6091,1356.043956043956,,0,-1,1768794452.1556091
1768794452163.4216,1357.5091575091574,,0,-1,1768794452.1634216
1768794452171.234,1354.5787545787546,,0,-1,1768794452.171234
1768794452179.0466,1352.3809523809523,,0,-1,1768794452.1790466
1768794452186.8591,1343.5897435897434,,0,-1,1768794452.1868591
1768794452194.6716,1334.7985347985348,,0,-1,1768794452.1946716
1768794452202.484,1323.076923076923,,0,-1,1768794452.202484
1768794452210.2966,1309.89010989011,,0,-1,1768794452.2102966
1768794452218.1091,1302.5641025641023,,0,-1,1768794452.2181091
1768794452225.9216,1299.6336996336995,,0,-1,1768794452.2259216
1768794452233.734,1298.168498168498,,0,-1,1768794452.233734
1768794452241.5466,1300.3663003663005,,0,-1,1768794452.2415466
1768794452249.3591,1305.4945054945051,,0,-1,1768794452.2493591
1768794452257.1716,1306.227106227106,,0,-1,1768794452.2571716
1768794452264.984,1303.2967032967033,,0,-1,1768794452.264984
1768794452272.7966,1304.0293040293038,,0,-1,1768794452.2727966
1768794452280.6091,1307.6923076923076,,0,-1,1768794452.2806091
1768794452288.4216,1307.6923076923076,,0,-1,1768794452.2884216
1768794452296.234,1306.9597069597069,,0,-1,1768794452.296234
1768794452304.0466,1306.227106227106,,0,-1,1768794452.3040466
1768794452311.8591,1299.6336996336995,,0,-1,1768794452.3118591
1768794452319.6716,1291.5750915750914,,0,-1,1768794452.3196716
1768794452327.484,1287.179487179487,,0,-1,1768794452.327484
1768794452335.2966,1288.6446886446886,,0,-1,1768794452.3352966
1768794452343.1091,1294.5054945054944,,0,-1,1768794452.3431091
1768794452350.9216,1300.3663003663005,,0,-1,1768794452.3509216
1768794452358.734,1298.9010989010987,,0,-1,1768794452.358734
1768794452366.5466,1295.2380952380952,,0,-1,1768794452.3665466
1768794452374.3591,1293.7728937728937,,0,-1,1768794452.3743591
1768794452382.1716,1296.7032967032967,,0,-1,1768794452.3821716
1768794452389.984,1301.098901098901,,0,-1,1768794452.389984
1768794452397.7966,1303.2967032967033,,0,-1,1768794452.3977966
1768794452405.6091,1306.9597069597069,,0,-1,1768794452.4056091
1768794452413.4216,1310.6227106227104,,0,-1,1768794452.4134216
1768794452421.234,1312.8205128205127,,0,-1,1768794452.421234
1768794452429.0466,1310.6227106227104,,0,-1,1768794452.4290466
1768794452436.8591,1310.6227106227104,,0,-1,1768794452.4368591
1768794452444.6716,1312.8205128205127,,0,-1,1768794452.4446716
1768794452452.484,1318.6813186813183,,0,-1,1768794452.452484
1768794452460.2966,1328.937728937729,,0,-1,1768794452.4602966
1768794452468.1091,1344.3223443223442,,0,-1,1768794452.4681091
1768794452475.9216,1361.1721611721612,,0,-1,1768794452.4759216
1768794452483.734,1380.2197802197802,,0,-1,1768794452.483734
1768794452491.5466,1398.5347985347985,,0,-1,1768794452.4915466
1768794452499.3591,1416.8498168498168,,0,-1,1768794452.4993591
1768794452507.1716,1435.164835164835,,0,-1,1768794452.5071716
1768794452514.984,1449.8168498168498,,0,-1,1768794452.514984
1768794452522.7966,1463.7362637362637,,0,-1,1768794452.5227966
1768794452530.6091,1475.4578754578754,,0,-1,1768794452.5306091
1768794452538.4216,1487.9120879120878,,0,-1,1768794452.5384216
1768794452546.234,1502.5641025641023,,0,-1,1768794452.546234
1768794452554.0466,1520.14652014652,,0,-1,1768794452.5540466
1768794452561.8591,1538.4615384615383,,0,-1,1768794452.5618591
1768794452569.6716,1557.5091575091574,,0,-1,1768794452.5696716
1768794452577.484,1577.2893772893772,,0,-1,1768794452.577484
1768794452585.2966,1595.6043956043954,,0,-1,1768794452.5852966
1768794452593.1091,1613.9194139194135,,0,-1,1768794452.5931091
1768794452600.9216,1633.6996336996335,,0,-1,1768794452.6009216
1768794452608.734,1652.0146520146518,,0,-1,1768794452.608734
1768794452616.5466,1667.3992673992673,,0,-1,1768794452.6165466
1768794452624.3591,1676.923076923077,,0,-1,1768794452.6243591
1768794452632.1716,1680.5860805860805,,0,-1,1768794452.6321716
1768794452639.984,1677.6556776556774,,0,-1,1768794452.639984
1768794452647.7966,1671.7948717948716,,0,-1,1768794452.6477966
1768794452655.6091,1664.4688644688645,,0,-1,1768794452.6556091
1768794452663.4216,1659.3406593406592,,0,-1,1768794452.6634216
1768794452671.234,1656.4102564102564,,0,-1,1768794452.671234
1768794452679.0466,1660.07326007326,,0,-1,1768794452.6790466
1768794452686.8591,1660.805860805861,,0,-1,1768794452.6868591
1768794452694.6716,1661.5384615384614,,0,-1,1768794452.6946716
1768794452702.484,1659.3406593406592,,0,-1,1768794452.702484
1768794452710.2966,1655.6776556776556,,0,-1,1768794452.7102966
1768794452718.1091,1649.084249084249,,0,-1,1768794452.7181091
1768794452725.9216,1642.4908424908424,,0,-1,1768794452.7259216
1768794452733.734,1633.6996336996335,,0,-1,1768794452.733734
1768794452741.5466,1626.3736263736262,,0,-1,1768794452.7415466
1768794452749.3591,1621.9780219780218,,0,-1,1768794452.7493591
1768794452757.1716,1617.5824175824175,,0,-1,1768794452.7571716
1768794452764.984,1610.989010989011,,0,-1,1768794452.764984
1768794452772.7966,1602.197802197802,,0,-1,1768794452.7727966
1768794452780.6091,1592.6739926739926,,0,-1,1768794452.7806091
1768794452788.4216,1583.150183150183,,0,-1,1768794452.7884216
1768794452796.234,1571.428571428571,,0,-1,1768794452.796234
1768794452804.0466,1556.043956043956,,0,-1,1768794452.8040466
1768794452811.8591,1541.3919413919414,,0,-1,1768794452.8118591
1768794452819.6716,1531.135531135531,,0,-1,1768794452.8196716
1768794452827.484,1520.8791208791208,,1,1,1768794452.827484
1768794452835.2966,1515.7509157509155,,1,1,1768794452.8352966
1768794452843.1091,1512.8205128205127,,1,1,1768794452.8431091
1768794452850.9216,1512.8205128205127,,1,1,1768794452.8509216
1768794452858.734,1513.5531135531137,,1,1,1768794452.858734
1768794452866.5466,1516.4835164835165,,1,1,1768794452.8665466
1768794452874.3591,1515.018315018315,,1,1,1768794452.8743591
1768794452882.1716,1512.087912087912,,1,1,1768794452.8821716
1768794452889.984,1507.6923076923076,,1,1,1768794452.889984
1768794452897.7966,1504.0293040293038,,1,1,1768794452.8977966
1768794452905.6091,1500.3663003663005,,1,1,1768794452.9056091
1768794452913.4216,1498.168498168498,,1,1,1768794452.9134216
1768794452921.234,1496.7032967032967,,1,1,1768794452.921234
1768794452929.0466,1495.2380952380952,,1,1,1768794452.9290466
1768794452936.8591,1492.3076923076922,,1,1,1768794452.9368591
1768794452944.6716,1485.7142857142856,,1,1,1768794452.9446716
1768794452952.484,1479.8534798534797,,1,1,1768794452.952484
1768794452960.2966,1471.062271062271,,1,1,1768794452.9602966
1768794452968.1091,1460.805860805861,,1,1,1768794452.9681091
1768794452975.9216,1450.5494505494505,,1,1,1768794452.9759216
1768794452983.734,1443.2234432234432,,1,1,1768794452.983734
1768794452991.5466,1436.6300366300366,,1,1,1768794452.9915466
1768794452999.3591,1431.5018315018317,,1,1,1768794452.9993591
1768794453007.1716,1427.8388278388277,,1,1,1768794453.0071716
1768794453014.984,1425.6410256410256,,1,1,1768794453.014984
1768794453022.7966,1423.4432234432234,,1,1,1768794453.0227966
1768794453030.6091,1419.047619047619,,1,1,1768794453.0306091
1768794453038.4216,1411.7216117216117,,1,1,1768794453.0384216
1768794453046.234,1402.9304029304028,,1,1,1768794453.046234
1768794453054.0466,1392.6739926739926,,1,1,1768794453.0540466
1768794453061.8591,1382.4175824175825,,1,1,1768794453.0618591
1768794453069.6716,1369.9633699633698,,1,1,1768794453.0696716
1768794453077.484,1356.7765567765566,,1,1,1768794453.077484
1768794453085.2966,1346.5201465201465,,1,1,1768794453.0852966
1768794453093.1091,1341.3919413919414,,1,1,1768794453.0931091
1768794453100.9216,1336.9963369963368,,1,1,1768794453.1009216
1768794453108.734,1331.135531135531,,1,1,1768794453.108734
1768794453116.5466,1332.6007326007325,,1,1,1768794453.1165466
1768794453124.3591,1335.5311355311355,,1,1,1768794453.1243591
1768794453132.1716,1333.3333333333333,,1,1,1768794453.1321716
1768794453139.984,1334.065934065934,,1,1,1768794453.139984
1768794453147.7966,1329.6703296703297,,1,1,1768794453.1477966
1768794453155.6091,1323.8095238095236,,1,1,1768794453.1556091
1768794453163.4216,1320.8791208791208,,1,1,1768794453.1634216
1768794453171.234,1315.018315018315,,1,1,1768794453.171234
1768794453179.0466,1310.6227106227104,,1,1,1768794453.1790466
1768794453186.8591,1309.89010989011,,1,1,1768794453.1868591
1768794453194.6716,1312.8205128205127,,1,1,1768794453.1946716
1768794453202.484,1311.3553113553112,,1,1,1768794453.202484
1768794453210.2966,1307.6923076923076,,1,1,1768794453.2102966
1768794453218.1091,1306.227106227106,,1,1,1768794453.2181091
1768794453225.9216,1302.5641025641023,,1,1,1768794453.2259216
1768794453233.734,1296.7032967032967,,1,1,1768794453.233734
1768794453241.5466,1295.970695970696,,1,1,1768794453.2415466
1768794453249.3591,1295.2380952380952,,1,1,1768794453.2493591
1768794453257.1716,1290.8424908424909,,1,1,1768794453.2571716
1768794453264.984,1289.3772893772891,,1,1,1768794453.264984
1768794453272.7966,1286.4468864468863,,1,1,1768794453.2727966
1768794453280.6091,1282.051282051282,,1,1,1768794453.2806091
1768794453288.4216,1284.9816849816848,,1,1,1768794453.2884216
1768794453296.234,1283.5164835164835,,1,1,1768794453.296234
1768794453304.0466,1287.9120879120878,,1,1,1768794453.3040466
1768794453311.8591,1287.179487179487,,1,1,1768794453.3118591
1768794453319.6716,1287.179487179487,,1,1,1768794453.3196716
1768794453327.484,1283.5164835164835,,1,1,1768794453.327484
1768794453335.2966,1274.7252747252746,,1,1,1768794453.3352966
1768794453343.1091,1269.5970695970695,,1,1,1768794453.3431091
1768794453350.9216,1264.4688644688645,,1,1,1768794453.3509216
1768794453358.734,1257.875457875458,,1,1,1768794453.358734
1768794453366.5466,1257.875457875458,,1,1,1768794453.3665466
1768794453374.3591,1254.212454212454,,1,1,1768794453.3743591
1768794453382.1716,1253.479853479853,,1,1,1768794453.3821716
1768794453389.984,1255.6776556776556,,1,1,1768794453.389984
1768794453397.7966,1254.9450549450548,,1,1,1768794453.3977966
1768794453405.6091,1260.07326007326,,1,1,1768794453.4056091
1768794453413.4216,1263.003663003663,,1,1,1768794453.4134216
1768794453421.234,1268.8644688644688,,1,1,1768794453.421234
1768794453429.0466,1271.062271062271,,1,1,1768794453.4290466
1768794453436.8591,1272.5274725274724,,1,1,1768794453.4368591
1768794453444.6716,1273.260073260073,,1,1,1768794453.4446716
1768794453452.484,1269.5970695970695,,1,1,1768794453.452484
1768794453460.2966,1264.4688644688645,,1,1,1768794453.4602966
1768794453468.1091,1255.6776556776556,,1,1,1768794453.4681091
1768794453475.9216,1250.5494505494505,,1,1,1768794453.4759216
1768794453483.734,1242.4908424908424,,1,1,1768794453.483734
1768794453491.5466,1243.956043956044,,1,1,1768794453.4915466
1768794453499.3591,1245.4212454212454,,1,1,1768794453.4993591
1768794453507.1716,1253.479853479853,,1,1,1768794453.5071716
1768794453514.984,1255.6776556776556,,1,1,1768794453.514984
1768794453522.7966,1260.07326007326,,1,1,1768794453.5227966
1768794453530.6091,1267.3992673992673,,1,1,1768794453.5306091
1768794453538.4216,1273.260073260073,,1,1,1768794453.5384216
1768794453546.234,1279.8534798534797,,1,1,1768794453.546234
1768794453554.0466,1284.2490842490845,,1,1,1768794453.5540466
1768794453561.8591,1298.168498168498,,1,1,1768794453.5618591
1768794453569.6716,1307.6923076923076,,1,1,1768794453.5696716
1768794453577.484,1323.076923076923,,1,1,1768794453.577484
1768794453585.2966,1332.6007326007325,,1,1,1768794453.5852966
1768794453593.1091,1345.7875457875457,,1,1,1768794453.5931091
1768794453600.9216,1353.113553113553,,1,1,1768794453.6009216
1768794453608.734,1363.3699633699632,,1,1,1768794453.608734
1768794453616.5466,1367.7655677655678,,1,1,1768794453.6165466
1768794453624.3591,1375.091575091575,,1,1,1768794453.6243591
1768794453632.1716,1377.2893772893772,,1,1,1768794453.6321716
1768794453639.984,1377.2893772893772,,1,1,1768794453.639984
1768794453647.7966,1375.8241758241757,,1,1,1768794453.6477966
1768794453655.6091,1370.6959706959706,,1,1,1768794453.6556091
1768794453663.4216,1372.161172161172,,1,1,1768794453.6634216
1768794453671.234,1375.091575091575,,1,1,1768794453.671234
1768794453679.0466,1380.2197802197802,,1,1,1768794453.6790466
1768794453686.8591,1389.7435897435896,,1,1,1768794453.6868591
1768794453694.6716,1393.4065934065934,,1,1,1768794453.6946716
1768794453702.484,1407.3260073260071,,1,1,1768794453.702484
1768794453710.2966,1412.4542124542124,,1,1,1768794453.7102966
1768794453718.1091,1424.175824175824,,1,1,1768794453.7181091
1768794453725.9216,1432.2344322344322,,1,1,1768794453.7259216
1768794453733.734,1441.7582417582416,,1,1,1768794453.733734
1768794453741.5466,1452.014652014652,,1,1,1768794453.7415466
1768794453749.3591,1454.9450549450548,,1,1,1768794453.7493591
1768794453757.1716,1454.212454212454,,1,1,1768794453.7571716
1768794453764.984,1450.5494505494505,,1,1,1768794453.764984
1768794453772.7966,1444.688644688645,,1,1,1768794453.7727966
1768794453780.6091,1443.2234432234432,,1,1,1768794453.7806091
1768794453788.4216,1441.7582417582416,,1,1,1768794453.7884216
1768794453796.234,1438.095238095238,,1,1,1768794453.796234
1768794453804.0466,1440.29304029304,,1,1,1768794453.8040466
1768794453811.8591,1436.6300366300366,,1,1,1768794453.8118591
1768794453819.6716,1432.9670329670328,,1,1,1768794453.8196716
1768794453827.484,1431.5018315018317,,1,1,1768794453.827484
1768794453835.2966,1428.5714285714284,,1,1,1768794453.8352966
1768794453843.1091,1421.9780219780218,,1,1,1768794453.8431091
1768794453850.9216,1420.5128205128203,,1,1,1768794453.8509216
1768794453858.734,1418.3150183150185,,1,1,1768794453.858734
1768794453866.5466,1416.117216117216,,1,1,1768794453.8665466
1768794453874.3591,1419.047619047619,,1,1,1768794453.8743591
1768794453882.1716,1417.5824175824175,,1,1,1768794453.8821716
1768794453889.984,1419.7802197802198,,1,1,1768794453.889984
1768794453897.7966,1421.245421245421,,1,1,1768794453.8977966
1768794453905.6091,1419.047619047619,,1,1,1768794453.9056091
1768794453913.4216,1416.8498168498168,,1,1,1768794453.9134216
1768794453921.234,1413.1868131868132,,1,1,1768794453.921234
1768794453929.0466,1404.3956043956043,,1,1,1768794453.9290466
1768794453936.8591,1400.0,,1,1,1768794453.9368591
1768794453944.6716,1397.8021978021975,,1,1,1768794453.9446716
1768794453952.484,1394.139194139194,,1,1,1768794453.952484
1768794453960.2966,1390.4761904761904,,1,1,1768794453.9602966
1768794453968.1091,1381.6849816849815,,1,1,1768794453.9681091
1768794453975.9216,1369.9633699633698,,1,1,1768794453.9759216
1768794453983.734,1361.904761904762,,1,1,1768794453.983734
1768794453991.5466,1351.6483516483515,,1,1,1768794453.9915466
1768794453999.3591,1347.985347985348,,1,1,1768794453.9993591
1768794454007.1716,1340.6593406593406,,1,1,1768794454.0071716
1768794454014.984,1335.5311355311355,,1,1,1768794454.014984
1768794454022.7966,1335.5311355311355,,1,1,1768794454.0227966
1768794454030.6091,1334.7985347985348,,1,1,1768794454.0306091
1768794454038.4216,1334.7985347985348,,1,1,1768794454.0384216
1768794454046.234,1336.263736263736,,1,1,1768794454.046234
1768794454054.0466,1337.7289377289376,,1,1,1768794454.0540466
1768794454061.8591,1336.9963369963368,,1,1,1768794454.0618591
1768794454069.6716,1335.5311355311355,,1,1,1768794454.0696716
1768794454077.484,1336.263736263736,,1,1,1768794454.077484
1768794454085.2966,1337.7289377289376,,1,1,1768794454.0852966
1768794454093.1091,1335.5311355311355,,1,1,1768794454.0931091
1768794454100.9216,1326.007326007326,,1,1,1768794454.1009216
1768794454108.734,1326.007326007326,,1,1,1768794454.108734
1768794454116.5466,1310.6227106227104,,1,1,1768794454.1165466
1768794454124.3591,1307.6923076923076,,1,1,1768794454.1243591
1768794454132.1716,1301.098901098901,,1,1,1768794454.1321716
1768794454139.984,1290.8424908424909,,1,1,1768794454.139984
1768794454147.7966,1282.051282051282,,1,1,1768794454.1477966
1768794454155.6091,1276.923076923077,,1,1,1768794454.1556091
1768794454163.4216,1268.8644688644688,,1,1,1768794454.1634216
1768794454171.234,1261.5384615384614,,1,1,1768794454.171234
1768794454179.0466,1253.479853479853,,1,1,1768794454.1790466
1768794454186.8591,1247.6190476190477,,1,1,1768794454.1868591
1768794454194.6716,1247.6190476190477,,1,1,1768794454.1946716
1768794454202.484,1249.8168498168498,,1,1,1768794454.202484
1768794454210.2966,1252.7472527472526,,1,1,1768794454.2102966
1768794454218.1091,1254.9450549450548,,1,1,1768794454.2181091
1768794454225.9216,1257.875457875458,,1,1,1768794454.2259216
1768794454233.734,1260.805860805861,,1,1,1768794454.233734
1768794454241.5466,1264.4688644688645,,1,1,1768794454.2415466
1768794454249.3591,1265.9340659340658,,1,1,1768794454.2493591
1768794454257.1716,1267.3992673992673,,1,1,1768794454.2571716
1768794454264.984,1268.131868131868,,1,1,1768794454.264984
1768794454272.7966,1268.8644688644688,,1,1,1768794454.2727966
1768794454280.6091,1266.6666666666663,,1,1,1768794454.2806091
1768794454288.4216,1264.4688644688645,,1,1,1768794454.2884216
1768794454296.234,1256.4102564102564,,1,1,1768794454.296234
1768794454304.0466,1250.5494505494505,,1,1,1768794454.3040466
1768794454311.8591,1249.084249084249,,1,1,1768794454.3118591
1768794454319.6716,1254.212454212454,,1,1,1768794454.3196716
1768794454327.484,1260.805860805861,,1,1,1768794454.327484
1768794454335.2966,1268.131868131868,,1,1,1768794454.3352966
1768794454343.1091,1271.7948717948716,,1,1,1768794454.3431091
1768794454350.9216,1276.923076923077,,1,1,1768794454.3509216
1768794454358.734,1283.5164835164835,,1,1,1768794454.358734
1768794454366.5466,1287.9120879120878,,1,1,1768794454.3665466
1768794454374.3591,1290.10989010989,,1,1,1768794454.3743591
1768794454382.1716,1291.5750915750914,,1,1,1768794454.3821716
1768794454389.984,1290.8424908424909,,1,1,1768794454.389984
1768794454397.7966,1282.7838827838827,,1,1,1768794454.3977966
1768794454405.6091,1272.5274725274724,,1,1,1768794454.4056091
1768794454413.4216,1261.5384615384614,,1,1,1768794454.4134216
1768794454421.234,1249.8168498168498,,1,1,1768794454.421234
1768794454429.0466,1243.956043956044,,1,1,1768794454.4290466
1768794454436.8591,1241.7582417582416,,1,1,1768794454.4368591
1768794454444.6716,1239.5604395604396,,1,1,1768794454.4446716
1768794454452.484,1238.095238095238,,1,1,1768794454.452484
1768794454460.2966,1234.4322344322345,,1,1,1768794454.4602966
1768794454468.1091,1231.5018315018317,,1,1,1768794454.4681091
1768794454475.9216,1229.3040293040292,,1,1,1768794454.4759216
1768794454483.734,1226.3736263736264,,1,1,1768794454.483734
1768794454491.5466,1227.106227106227,,1,1,1768794454.4915466
1768794454499.3591,1228.5714285714284,,1,1,1768794454.4993591
1768794454507.1716,1232.967032967033,,1,1,1768794454.5071716
1768794454514.984,1238.095238095238,,1,1,1768794454.514984
1768794454522.7966,1248.3516483516482,,1,1,1768794454.5227966
1768794454530.6091,1258.6080586080586,,1,1,1768794454.5306091
1768794454538.4216,1268.8644688644688,,1,1,1768794454.5384216
1768794454546.234,1276.190476190476,,1,1,1768794454.546234
1768794454554.0466,1278.3882783882782,,1,1,1768794454.5540466
1768794454561.8591,1282.7838827838827,,1,1,1768794454.5618591
1768794454569.6716,1284.2490842490845,,1,1,1768794454.5696716
1768794454577.484,1291.5750915750914,,1,1,1768794454.577484
1768794454585.2966,1300.3663003663005,,1,1,1768794454.5852966
1768794454593.1091,1306.9597069597069,,1,1,1768794454.5931091
1768794454600.9216,1312.8205128205127,,1,1,1768794454.6009216
1768794454608.734,1316.4835164835165,,1,1,1768794454.608734
1768794454616.5466,1322.3443223443223,,1,1,1768794454.6165466
1768794454624.3591,1326.739926739927,,1,1,1768794454.6243591
1768794454632.1716,1333.3333333333333,,1,1,1768794454.6321716
1768794454639.984,1339.194139194139,,1,1,1768794454.639984
1768794454647.7966,1344.3223443223442,,1,1,1768794454.6477966
1768794454655.6091,1347.985347985348,,1,1,1768794454.6556091
1768794454663.4216,1353.8461538461538,,1,1,1768794454.6634216
1768794454671.234,1360.4395604395604,,1,1,1768794454.671234
1768794454679.0466,1367.032967032967,,1,1,1768794454.6790466
1768794454686.8591,1369.230769230769,,1,1,1768794454.6868591
1768794454694.6716,1369.230769230769,,1,1,1768794454.6946716
1768794454702.484,1367.032967032967,,1,1,1768794454.702484
1768794454710.2966,1361.904761904762,,1,1,1768794454.7102966
1768794454718.1091,1355.311355311355,,1,1,1768794454.7181091
1768794454725.9216,1347.985347985348,,1,1,1768794454.7259216
1768794454733.734,1343.5897435897434,,1,1,1768794454.733734
1768794454741.5466,1340.6593406593406,,1,1,1768794454.7415466
1768794454749.3591,1337.7289377289376,,1,1,1768794454.7493591
1768794454757.1716,1332.6007326007325,,1,1,1768794454.7571716
1768794454764.984,1328.937728937729,,1,1,1768794454.764984
1768794454772.7966,1328.2051282051282,,1,1,1768794454.7727966
1768794454780.6091,1323.8095238095236,,1,1,1768794454.7806091
1768794454788.4216,1321.6117216117216,,1,1,1768794454.7884216
1768794454796.234,1319.4139194139193,,1,1,1768794454.796234
1768794454804.0466,1320.8791208791208,,1,1,1768794454.8040466
1768794454811.8591,1327.4725274725274,,1,1,1768794454.8118591
1768794454819.6716,1335.5311355311355,,1,1,1768794454.8196716
1768794454827.484,1340.6593406593406,,1,1,1768794454.827484
1768794454835.2966,1343.5897435897434,,1,1,1768794454.8352966
1768794454843.1091,1339.92673992674,,1,1,1768794454.8431091
1768794454850.9216,1332.6007326007325,,1,1,1768794454.8509216
1768794454858.734,1321.6117216117216,,1,1,1768794454.858734
1768794454866.5466,1311.3553113553112,,1,1,1768794454.8665466
1768794454874.3591,1298.168498168498,,1,1,1768794454.8743591
1768794454882.1716,1290.10989010989,,1,1,1768794454.8821716
1768794454889.984,1286.4468864468863,,1,1,1768794454.889984
1768794454897.7966,1284.9816849816848,,1,1,1768794454.8977966
1768794454905.6091,1284.9816849816848,,1,1,1768794454.9056091
1768794454913.4216,1284.9816849816848,,1,1,1768794454.9134216
1768794454921.234,1284.9816849816848,,1,1,1768794454.921234
1768794454929.0466,1284.2490842490845,,1,1,1768794454.9290466
1768794454936.8591,1283.5164835164835,,1,1,1768794454.9368591
1768794454944.6716,1279.8534798534797,,1,1,1768794454.9446716
1768794454952.484,1276.190476190476,,1,1,1768794454.952484
1768794454960.2966,1270.3296703296703,,1,1,1768794454.9602966
1768794454968.1091,1269.5970695970695,,1,1,1768794454.9681091
1768794454975.9216,1273.260073260073,,1,1,1768794454.9759216
1768794454983.734,1282.051282051282,,1,1,1768794454.983734
1768794454991.5466,1295.2380952380952,,1,1,1768794454.9915466
1768794454999.3591,1309.1575091575091,,1,1,1768794454.9993591
1768794455007.1716,1321.6117216117216,,1,1,1768794455.0071716
1768794455014.984,1330.4029304029302,,1,1,1768794455.014984
1768794455022.7966,1334.065934065934,,1,1,1768794455.0227966
1768794455030.6091,1338.4615384615383,,1,1,1768794455.0306091
1768794455038.4216,1343.5897435897434,,1,1,1768794455.0384216
1768794455046.234,1351.6483516483515,,1,1,1768794455.046234
1768794455054.0466,1358.241758241758,,1,1,1768794455.0540466
1768794455061.8591,1358.241758241758,,1,1,1768794455.0618591
1768794455069.6716,1356.7765567765566,,1,1,1768794455.0696716
1768794455077.484,1356.7765567765566,,1,1,1768794455.077484
1768794455085.2966,1353.113553113553,,1,1,1768794455.0852966
1768794455093.1091,1343.5897435897434,,1,1,1768794455.0931091
1768794455100.9216,1333.3333333333333,,1,1,1768794455.1009216
1768794455108.734,1320.14652014652,,1,1,1768794455.108734
1768794455116.5466,1309.1575091575091,,1,1,1768794455.1165466
1768794455124.3591,1300.3663003663005,,1,1,1768794455.1243591
1768794455132.1716,1290.8424908424909,,1,1,1768794455.1321716
1768794455139.984,1283.5164835164835,,1,1,1768794455.139984
1768794455147.7966,1277.6556776556777,,1,1,1768794455.1477966
1768794455155.6091,1276.190476190476,,1,1,1768794455.1556091
1768794455163.4216,1275.4578754578754,,1,1,1768794455.1634216
1768794455171.234,1273.992673992674,,0,-1,1768794455.171234
1768794455179.0466,1273.992673992674,,0,-1,1768794455.1790466
1768794455186.8591,1275.4578754578754,,0,-1,1768794455.1868591
1768794455194.6716,1278.3882783882782,,0,-1,1768794455.1946716
1768794455202.484,1278.3882783882782,,0,-1,1768794455.202484
1768794455210.2966,1276.190476190476,,0,-1,1768794455.2102966
1768794455218.1091,1272.5274725274724,,0,-1,1768794455.2181091
1768794455225.9216,1271.062271062271,,0,-1,1768794455.2259216
1768794455233.734,1267.3992673992673,,0,-1,1768794455.233734
1768794455241.5466,1262.2710622710622,,0,-1,1768794455.2415466
1768794455249.3591,1258.6080586080586,,0,-1,1768794455.2493591
1768794455257.1716,1257.142857142857,,0,-1,1768794455.2571716
1768794455264.984,1252.014652014652,,0,-1,1768794455.264984
1768794455272.7966,1246.153846153846,,0,-1,1768794455.2727966
1768794455280.6091,1248.3516483516482,,0,-1,1768794455.2806091
1768794455288.4216,1248.3516483516482,,0,-1,1768794455.2884216
1768794455296.234,1249.8168498168498,,0,-1,1768794455.296234
1768794455304.0466,1248.3516483516482,,0,-1,1768794455.3040466
1768794455311.8591,1252.014652014652,,0,-1,1768794455.3118591
1768794455319.6716,1256.4102564102564,,0,-1,1768794455.3196716
1768794455327.484,1254.9450549450548,,0,-1,1768794455.327484
1768794455335.2966,1257.142857142857,,0,-1,1768794455.3352966
1768794455343.1091,1254.9450549450548,,0,-1,1768794455.3431091
1768794455350.9216,1254.9450549450548,,0,-1,1768794455.3509216
1768794455358.734,1252.7472527472526,,0,-1,1768794455.358734
1768794455366.5466,1252.014652014652,,0,-1,1768794455.3665466
1768794455374.3591,1252.7472527472526,,0,-1,1768794455.3743591
1768794455382.1716,1254.9450549450548,,0,-1,1768794455.3821716
1768794455389.984,1260.07326007326,,0,-1,1768794455.389984
1768794455397.7966,1267.3992673992673,,0,-1,1768794455.3977966
1768794455405.6091,1278.3882783882782,,0,-1,1768794455.4056091
1768794455413.4216,1286.4468864468863,,0,-1,1768794455.4134216
1768794455421.234,1299.6336996336995,,0,-1,1768794455.421234
1768794455429.0466,1306.9597069597069,,0,-1,1768794455.4290466
1768794455436.8591,1314.2857142857142,,0,-1,1768794455.4368591
1768794455444.6716,1323.8095238095236,,0,-1,1768794455.4446716
1768794455452.484,1331.135531135531,,0,-1,1768794455.452484
1768794455460.2966,1337.7289377289376,,0,-1,1768794455.4602966
1768794455468.1091,1346.5201465201465,,0,-1,1768794455.4681091
1768794455475.9216,1355.311355311355,,0,-1,1768794455.4759216
1768794455483.734,1359.7069597069597,,0,-1,1768794455.483734
1768794455491.5466,1366.3003663003662,,0,-1,1768794455.4915466
1768794455499.3591,1373.6263736263736,,0,-1,1768794455.4993591
1768794455507.1716,1376.5567765567764,,0,-1,1768794455.5071716
1768794455514.984,1380.952380952381,,0,-1,1768794455.514984
1768794455522.7966,1386.080586080586,,0,-1,1768794455.5227966
1768794455530.6091,1383.8827838827838,,0,-1,1768794455.5306091
1768794455538.4216,1387.5457875457876,,0,-1,1768794455.5384216
1768794455546.234,1387.5457875457876,,0,-1,1768794455.546234
1768794455554.0466,1389.7435897435896,,0,-1,1768794455.5540466
1768794455561.8591,1386.080586080586,,0,-1,1768794455.5618591
1768794455569.6716,1385.3479853479853,,0,-1,1768794455.5696716
1768794455577.484,1378.7545787545787,,0,-1,1768794455.577484
1768794455585.2966,1372.8937728937728,,0,-1,1768794455.5852966
1768794455593.1091,1364.8351648351647,,0,-1,1768794455.5931091
1768794455600.9216,1359.7069597069597,,0,-1,1768794455.6009216
1768794455608.734,1356.043956043956,,0,-1,1768794455.608734
1768794455616.5466,1350.18315018315,,0,-1,1768794455.6165466
1768794455624.3591,1345.7875457875457,,0,-1,1768794455.6243591
1768794455632.1716,1340.6593406593406,,0,-1,1768794455.6321716
1768794455639.984,1339.194139194139,,0,-1,1768794455.639984
1768794455647.7966,1339.194139194139,,0,-1,1768794455.6477966
1768794455655.6091,1342.857142857143,,0,-1,1768794455.6556091
1768794455663.4216,1346.5201465201465,,0,-1,1768794455.6634216
1768794455671.234,1347.985347985348,,0,-1,1768794455.671234
1768794455679.0466,1354.5787545787546,,0,-1,1768794455.6790466
1768794455686.8591,1355.311355311355,,0,-1,1768794455.6868591
1768794455694.6716,1356.043956043956,,0,-1,1768794455.6946716
1768794455702.484,1358.974358974359,,0,-1,1768794455.702484
1768794455710.2966,1359.7069597069597,,0,-1,1768794455.7102966
1768794455718.1091,1359.7069597069597,,0,-1,1768794455.7181091
1768794455725.9216,1362.6373626373625,,0,-1,1768794455.7259216
1768794455733.734,1360.4395604395604,,0,-1,1768794455.733734
1768794455741.5466,1358.974358974359,,0,-1,1768794455.7415466
1768794455749.3591,1356.043956043956,,0,-1,1768794455.7493591
1768794455757.1716,1353.113553113553,,0,-1,1768794455.7571716
1768794455764.984,1356.7765567765566,,0,-1,1768794455.764984
1768794455772.7966,1357.5091575091574,,0,-1,1768794455.7727966
1768794455780.6091,1361.1721611721612,,0,-1,1768794455.7806091
1768794455788.4216,1362.6373626373625,,0,-1,1768794455.7884216
1768794455796.234,1368.4981684981683,,0,-1,1768794455.796234
1768794455804.0466,1368.4981684981683,,0,-1,1768794455.8040466
1768794455811.8591,1370.6959706959706,,0,-1,1768794455.8118591
1768794455819.6716,1364.102564102564,,0,-1,1768794455.8196716
1768794455827.484,1359.7069597069597,,0,-1,1768794455.827484
1768794455835.2966,1349.4505494505493,,0,-1,1768794455.8352966
1768794455843.1091,1342.124542124542,,0,-1,1768794455.8431091
1768794455850.9216,1331.135531135531,,0,-1,1768794455.8509216
1768794455858.734,1328.2051282051282,,0,-1,1768794455.858734
1768794455866.5466,1323.076923076923,,0,-1,1768794455.8665466
1768794455874.3591,1320.8791208791208,,0,-1,1768794455.8743591
1768794455882.1716,1318.6813186813183,,0,-1,1768794455.8821716
1768794455889.984,1315.018315018315,,0,-1,1768794455.889984
1768794455897.7966,1317.9487179487178,,0,-1,1768794455.8977966
1768794455905.6091,1317.9487179487178,,0,-1,1768794455.9056091
1768794455913.4216,1316.4835164835165,,0,-1,1768794455.9134216
1768794455921.234,1313.5531135531137,,0,-1,1768794455.921234
1768794455929.0466,1309.1575091575091,,0,-1,1768794455.9290466
1768794455936.8591,1315.018315018315,,0,-1,1768794455.9368591
1768794455944.6716,1315.018315018315,,0,-1,1768794455.9446716
1768794455952.484,1321.6117216117216,,0,-1,1768794455.952484
1768794455960.2966,1325.2747252747251,,0,-1,1768794455.9602966
1768794455968.1091,1330.4029304029302,,0,-1,1768794455.9681091
1768794455975.9216,1331.8681318681315,,0,-1,1768794455.9759216
1768794455983.734,1330.4029304029302,,0,-1,1768794455.983734
1768794455991.5466,1333.3333333333333,,0,-1,1768794455.9915466
1768794455999.3591,1329.6703296703297,,0,-1,1768794455.9993591
1768794456007.1716,1329.6703296703297,,0,-1,1768794456.0071716
1768794456014.984,1327.4725274725274,,0,-1,1768794456.014984
1768794456022.7966,1326.739926739927,,0,-1,1768794456.0227966
1768794456030.6091,1325.2747252747251,,0,-1,1768794456.0306091
1768794456038.4216,1317.216117216117,,0,-1,1768794456.0384216
1768794456046.234,1315.7509157509155,,0,-1,1768794456.046234
1768794456054.0466,1310.6227106227104,,0,-1,1768794456.0540466
1768794456061.8591,1309.89010989011,,0,-1,1768794456.0618591
1768794456069.6716,1305.4945054945051,,0,-1,1768794456.0696716
1768794456077.484,1296.7032967032967,,0,-1,1768794456.077484
1768794456085.2966,1293.7728937728937,,0,-1,1768794456.0852966
1768794456093.1091,1285.7142857142856,,0,-1,1768794456.0931091
1768794456100.9216,1283.5164835164835,,0,-1,1768794456.1009216
1768794456108.734,1282.7838827838827,,0,-1,1768794456.108734
1768794456116.5466,1282.7838827838827,,0,-1,1768794456.1165466
1768794456124.3591,1283.5164835164835,,0,-1,1768794456.1243591
1768794456132.1716,1279.8534798534797,,0,-1,1768794456.1321716
1768794456139.984,1279.120879120879,,0,-1,1768794456.139984
1768794456147.7966,1280.5860805860805,,0,-1,1768794456.1477966
1768794456155.6091,1280.5860805860805,,0,-1,1768794456.1556091
1768794456163.4216,1282.7838827838827,,0,-1,1768794456.1634216
1768794456171.234,1284.2490842490845,,0,-1,1768794456.171234
1768794456179.0466,1287.179487179487,,0,-1,1768794456.1790466
1768794456186.8591,1285.7142857142856,,0,-1,1768794456.1868591
1768794456194.6716,1282.051282051282,,0,-1,1768794456.1946716
1768794456202.484,1282.051282051282,,0,-1,1768794456.202484
1768794456210.2966,1281.3186813186812,,0,-1,1768794456.2102966
1768794456218.1091,1279.8534798534797,,0,-1,1768794456.2181091
1768794456225.9216,1282.051282051282,,0,-1,1768794456.2259216
1768794456233.734,1285.7142857142856,,0,-1,1768794456.233734
1768794456241.5466,1285.7142857142856,,0,-1,1768794456.2415466
1768794456249.3591,1286.4468864468863,,0,-1,1768794456.2493591
1768794456257.1716,1292.3076923076922,,0,-1,1768794456.2571716
1768794456264.984,1296.7032967032967,,0,-1,1768794456.264984
1768794456272.7966,1303.2967032967033,,0,-1,1768794456.2727966
1768794456280.6091,1317.9487179487178,,0,-1,1768794456.2806091
1768794456288.4216,1331.135531135531,,0,-1,1768794456.2884216
1768794456296.234,1342.124542124542,,0,-1,1768794456.296234
1768794456304.0466,1350.9157509157508,,0,-1,1768794456.3040466
1768794456311.8591,1361.1721611721612,,0,-1,1768794456.3118591
1768794456319.6716,1368.4981684981683,,0,-1,1768794456.3196716
1768794456327.484,1376.5567765567764,,0,-1,1768794456.327484
1768794456335.2966,1387.5457875457876,,0,-1,1768794456.3352966
1768794456343.1091,1396.3369963369962,,0,-1,1768794456.3431091
1768794456350.9216,1403.6630036630036,,0,-1,1768794456.3509216
1768794456358.734,1409.5238095238094,,0,-1,1768794456.358734
1768794456366.5466,1411.7216117216117,,0,-1,1768794456.3665466
1768794456374.3591,1411.7216117216117,,0,-1,1768794456.3743591
1768794456382.1716,1408.7912087912086,,0,-1,1768794456.3821716
1768794456389.984,1413.1868131868132,,0,-1,1768794456.389984
1768794456397.7966,1421.245421245421,,0,-1,1768794456.3977966
1768794456405.6091,1430.03663003663,,0,-1,1768794456.4056091
1768794456413.4216,1438.095238095238,,0,-1,1768794456.4134216
1768794456421.234,1445.4212454212454,,0,-1,1768794456.421234
1768794456429.0466,1451.2820512820513,,0,-1,1768794456.4290466
1768794456436.8591,1453.479853479853,,0,-1,1768794456.4368591
1768794456444.6716,1452.7472527472526,,0,-1,1768794456.4446716
1768794456452.484,1453.479853479853,,0,-1,1768794456.452484
1768794456460.2966,1454.212454212454,,0,-1,1768794456.4602966
1768794456468.1091,1453.479853479853,,0,-1,1768794456.4681091
1768794456475.9216,1454.212454212454,,0,-1,1768794456.4759216
1768794456483.734,1454.212454212454,,0,-1,1768794456.483734
1768794456491.5466,1450.5494505494505,,0,-1,1768794456.4915466
1768794456499.3591,1445.4212454212454,,0,-1,1768794456.4993591
1768794456507.1716,1441.7582417582416,,0,-1,1768794456.5071716
1768794456514.984,1437.362637362637,,0,-1,1768794456.514984
1768794456522.7966,1430.7692307692307,,0,-1,1768794456.5227966
1768794456530.6091,1423.4432234432234,,0,-1,1768794456.5306091
1768794456538.4216,1419.7802197802198,,0,-1,1768794456.5384216
1768794456546.234,1421.245421245421,,0,-1,1768794456.546234
1768794456554.0466,1424.175824175824,,0,-1,1768794456.5540466
1768794456561.8591,1427.8388278388277,,0,-1,1768794456.5618591
1768794456569.6716,1431.5018315018317,,0,-1,1768794456.5696716
1768794456577.484,1433.6996336996335,,0,-1,1768794456.577484
1768794456585.2966,1436.6300366300366,,0,-1,1768794456.5852966
1768794456593.1091,1437.362637362637,,0,-1,1768794456.5931091
1768794456600.9216,1436.6300366300366,,0,-1,1768794456.6009216
1768794456608.734,1432.9670329670328,,0,-1,1768794456.608734
1768794456616.5466,1426.3736263736262,,0,-1,1768794456.6165466
1768794456624.3591,1416.117216117216,,0,-1,1768794456.6243591
1768794456632.1716,1409.5238095238094,,0,-1,1768794456.6321716
1768794456639.984,1403.6630036630036,,0,-1,1768794456.639984
1768794456647.7966,1402.197802197802,,0,-1,1768794456.6477966
1768794456655.6091,1400.7326007326003,,0,-1,1768794456.6556091
1768794456663.4216,1402.197802197802,,0,-1,1768794456.6634216
1768794456671.234,1402.197802197802,,0,-1,1768794456.671234
1768794456679.0466,1400.7326007326003,,0,-1,1768794456.6790466
1768794456686.8591,1399.2673992673992,,0,-1,1768794456.6868591
1768794456694.6716,1399.2673992673992,,0,-1,1768794456.6946716
1768794456702.484,1404.3956043956043,,0,-1,1768794456.702484
1768794456710.2966,1410.2564102564102,,0,-1,1768794456.7102966
1768794456718.1091,1414.6520146520145,,0,-1,1768794456.7181091
1768794456725.9216,1410.989010989011,,0,-1,1768794456.7259216
1768794456733.734,1407.3260073260071,,0,-1,1768794456.733734
1768794456741.5466,1402.197802197802,,0,-1,1768794456.7415466
1768794456749.3591,1397.069597069597,,0,-1,1768794456.7493591
1768794456757.1716,1393.4065934065934,,0,-1,1768794456.7571716
1768794456764.984,1389.0109890109889,,0,-1,1768794456.764984
1768794456772.7966,1385.3479853479853,,0,-1,1768794456.7727966
1768794456780.6091,1382.4175824175825,,0,-1,1768794456.7806091
1768794456788.4216,1378.7545787545787,,0,-1,1768794456.7884216
1768794456796.234,1372.8937728937728,,0,-1,1768794456.796234
1768794456804.0466,1366.3003663003662,,0,-1,1768794456.8040466
1768794456811.8591,1359.7069597069597,,0,-1,1768794456.8118591
1768794456819.6716,1351.6483516483515,,0,-1,1768794456.8196716
1768794456827.484,1342.857142857143,,0,-1,1768794456.827484
1768794456835.2966,1334.065934065934,,0,-1,1768794456.8352966
1768794456843.1091,1323.8095238095236,,0,-1,1768794456.8431091
1768794456850.9216,1313.5531135531137,,0,-1,1768794456.8509216
1768794456858.734,1305.4945054945051,,0,-1,1768794456.858734
1768794456866.5466,1296.7032967032967,,0,-1,1768794456.8665466
1768794456874.3591,1289.3772893772891,,0,-1,1768794456.8743591
1768794456882.1716,1282.7838827838827,,0,-1,1768794456.8821716
1768794456889.984,1273.992673992674,,0,-1,1768794456.889984
1768794456897.7966,1260.805860805861,,0,-1,1768794456.8977966
1768794456905.6091,1251.2820512820513,,0,-1,1768794456.9056091
1768794456913.4216,1245.4212454212454,,0,-1,1768794456.9134216
1768794456921.234,1245.4212454212454,,0,-1,1768794456.921234
1768794456929.0466,1249.084249084249,,0,-1,1768794456.9290466
1768794456936.8591,1253.479853479853,,0,-1,1768794456.9368591
1768794456944.6716,1254.9450549450548,,0,-1,1768794456.9446716
1768794456952.484,1253.479853479853,,0,-1,1768794456.952484
1768794456960.2966,1260.07326007326,,0,-1,1768794456.9602966
1768794456968.1091,1268.131868131868,,0,-1,1768794456.9681091
1768794456975.9216,1273.992673992674,,0,-1,1768794456.9759216
1768794456983.734,1275.4578754578754,,0,-1,1768794456.983734
1768794456991.5466,1274.7252747252746,,0,-1,1768794456.9915466
1768794456999.3591,1271.7948717948716,,0,-1,1768794456.9993591
1768794457007.1716,1266.6666666666663,,0,-1,1768794457.0071716
1768794457014.984,1260.07326007326,,0,-1,1768794457.014984
1768794457022.7966,1253.479853479853,,0,-1,1768794457.0227966
1768794457030.6091,1249.8168498168498,,0,-1,1768794457.0306091
1768794457038.4216,1247.6190476190477,,0,-1,1768794457.0384216
1768794457046.234,1246.153846153846,,0,-1,1768794457.046234
1768794457054.0466,1247.6190476190477,,0,-1,1768794457.0540466
1768794457061.8591,1249.8168498168498,,0,-1,1768794457.0618591
1768794457069.6716,1251.2820512820513,,0,-1,1768794457.0696716
1768794457077.484,1251.2820512820513,,0,-1,1768794457.077484
1768794457085.2966,1251.2820512820513,,0,-1,1768794457.0852966
1768794457093.1091,1252.7472527472526,,0,-1,1768794457.0931091
1768794457100.9216,1258.6080586080586,,0,-1,1768794457.1009216
1768794457108.734,1264.4688644688645,,0,-1,1768794457.108734
1768794457116.5466,1271.062271062271,,0,-1,1768794457.1165466
1768794457124.3591,1278.3882783882782,,0,-1,1768794457.1243591
1768794457132.1716,1289.3772893772891,,0,-1,1768794457.1321716
1768794457139.984,1299.6336996336995,,0,-1,1768794457.139984
1768794457147.7966,1311.3553113553112,,0,-1,1768794457.1477966
1768794457155.6091,1323.8095238095236,,0,-1,1768794457.1556091
1768794457163.4216,1337.7289377289376,,0,-1,1768794457.1634216
1768794457171.234,1354.5787545787546,,0,-1,1768794457.171234
1768794457179.0466,1369.9633699633698,,0,-1,1768794457.1790466
1768794457186.8591,1383.150183150183,,0,-1,1768794457.1868591
1768794457194.6716,1396.3369963369962,,0,-1,1768794457.1946716
1768794457202.484,1408.7912087912086,,0,-1,1768794457.202484
1768794457210.2966,1417.5824175824175,,0,-1,1768794457.2102966
1768794457218.1091,1426.3736263736262,,0,-1,1768794457.2181091
1768794457225.9216,1433.6996336996335,,0,-1,1768794457.2259216
1768794457233.734,1439.5604395604394,,0,-1,1768794457.233734
1768794457241.5466,1443.2234432234432,,0,-1,1768794457.2415466
1768794457249.3591,1443.956043956044,,0,-1,1768794457.2493591
1768794457257.1716,1439.5604395604394,,0,-1,1768794457.2571716
1768794457264.984,1435.164835164835,,0,-1,1768794457.264984
1768794457272.7966,1434.4322344322345,,0,-1,1768794457.2727966
1768794457280.6091,1430.7692307692307,,0,-1,1768794457.2806091
1768794457288.4216,1427.106227106227,,0,-1,1768794457.2884216
1768794457296.234,1424.9084249084249,,0,-1,1768794457.296234
1768794457304.0466,1424.9084249084249,,0,-1,1768794457.3040466
1768794457311.8591,1430.03663003663,,0,-1,1768794457.3118591
1768794457319.6716,1434.4322344322345,,0,-1,1768794457.3196716
1768794457327.484,1438.8278388278388,,0,-1,1768794457.327484
1768794457335.2966,1445.4212454212454,,0,-1,1768794457.3352966
1768794457343.1091,1451.2820512820513,,0,-1,1768794457.3431091
1768794457350.9216,1455.6776556776556,,0,-1,1768794457.3509216
1768794457358.734,1457.142857142857,,0,-1,1768794457.358734
1768794457366.5466,1456.4102564102564,,0,-1,1768794457.3665466
1768794457374.3591,1459.3406593406592,,0,-1,1768794457.3743591
1768794457382.1716,1465.9340659340658,,0,-1,1768794457.3821716
1768794457389.984,1471.062271062271,,0,-1,1768794457.389984
1768794457397.7966,1472.5274725274724,,0,-1,1768794457.3977966
1768794457405.6091,1472.5274725274724,,0,-1,1768794457.4056091
1768794457413.4216,1468.8644688644688,,0,-1,1768794457.4134216
1768794457421.234,1462.2710622710622,,0,-1,1768794457.421234
1768794457429.0466,1458.6080586080584,,0,-1,1768794457.4290466
1768794457436.8591,1457.142857142857,,0,-1,1768794457.4368591
1768794457444.6716,1453.479853479853,,0,-1,1768794457.4446716
1768794457452.484,1449.084249084249,,0,-1,1768794457.452484
1768794457460.2966,1443.2234432234432,,0,-1,1768794457.4602966
1768794457468.1091,1435.8974358974358,,0,-1,1768794457.4681091
1768794457475.9216,1427.8388278388277,,0,-1,1768794457.4759216
1768794457483.734,1421.245421245421,,0,-1,1768794457.483734
1768794457491.5466,1416.117216117216,,0,-1,1768794457.4915466
1768794457499.3591,1413.9194139194135,,0,-1,1768794457.4993591
1768794457507.1716,1410.989010989011,,0,-1,1768794457.5071716
1768794457514.984,1408.7912087912086,,0,-1,1768794457.514984
1768794457522.7966,1405.8608058608058,,0,-1,1768794457.5227966
1768794457530.6091,1403.6630036630036,,0,-1,1768794457.5306091
1768794457538.4216,1400.7326007326003,,0,-1,1768794457.5384216
1768794457546.234,1401.4652014652013,,0,-1,1768794457.546234
1768794457554.0466,1402.197802197802,,0,-1,1768794457.5540466
1768794457561.8591,1402.9304029304028,,0,-1,1768794457.5618591
1768794457569.6716,1404.3956043956043,,0,-1,1768794457.5696716
1768794457577.484,1407.3260073260071,,0,-1,1768794457.577484
1768794457585.2966,1408.058608058608,,0,-1,1768794457.5852966
1768794457593.1091,1400.7326007326003,,0,-1,1768794457.5931091
1768794457600.9216,1389.0109890109889,,0,-1,1768794457.6009216
1768794457608.734,1382.4175824175825,,0,-1,1768794457.608734
1768794457616.5466,1378.7545787545787,,0,-1,1768794457.6165466
1768794457624.3591,1380.952380952381,,0,-1,1768794457.6243591
1768794457632.1716,1383.150183150183,,0,-1,1768794457.6321716
1768794457639.984,1383.150183150183,,0,-1,1768794457.639984
1768794457647.7966,1379.4871794871794,,0,-1,1768794457.6477966
1768794457655.6091,1375.8241758241757,,0,-1,1768794457.6556091
1768794457663.4216,1372.8937728937728,,0,-1,1768794457.6634216
1768794457671.234,1369.230769230769,,0,-1,1768794457.671234
1768794457679.0466,1359.7069597069597,,0,-1,1768794457.6790466
1768794457686.8591,1350.18315018315,,0,-1,1768794457.6868591
1768794457694.6716,1341.3919413919414,,0,-1,1768794457.6946716
1768794457702.484,1336.9963369963368,,0,-1,1768794457.702484
1768794457710.2966,1334.7985347985348,,0,-1,1768794457.7102966
1768794457718.1091,1335.5311355311355,,0,-1,1768794457.7181091
1768794457725.9216,1333.3333333333333,,0,-1,1768794457.7259216
1768794457733.734,1329.6703296703297,,0,-1,1768794457.733734
1768794457741.5466,1329.6703296703297,,0,-1,1768794457.7415466
1768794457749.3591,1328.937728937729,,0,-1,1768794457.7493591
1768794457757.1716,1330.4029304029302,,0,-1,1768794457.7571716
1768794457764.984,1323.076923076923,,0,-1,1768794457.764984
1768794457772.7966,1317.9487179487178,,0,-1,1768794457.7727966
1768794457780.6091,1310.6227106227104,,0,-1,1768794457.7806091
1768794457788.4216,1305.4945054945051,,0,-1,1768794457.7884216
1768794457796.234,1298.9010989010987,,0,-1,1768794457.796234
1768794457804.0466,1293.7728937728937,,0,-1,1768794457.8040466
1768794457811.8591,1289.3772893772891,,0,-1,1768794457.8118591
1768794457819.6716,1287.179487179487,,0,-1,1768794457.8196716
1768794457827.484,1288.6446886446886,,0,-1,1768794457.827484
1768794457835.2966,1292.3076923076922,,0,-1,1768794457.8352966
1768794457843.1091,1295.970695970696,,0,-1,1768794457.8431091
1768794457850.9216,1297.4358974358977,,0,-1,1768794457.8509216
1768794457858.734,1296.7032967032967,,0,-1,1768794457.858734
1768794457866.5466,1296.7032967032967,,0,-1,1768794457.8665466
1768794457874.3591,1293.7728937728937,,0,-1,1768794457.8743591
1768794457882.1716,1289.3772893772891,,0,-1,1768794457.8821716
1768794457889.984,1284.9816849816848,,0,-1,1768794457.889984
1768794457897.7966,1280.5860805860805,,0,-1,1768794457.8977966
1768794457905.6091,1276.190476190476,,0,-1,1768794457.9056091
1768794457913.4216,1271.7948717948716,,0,-1,1768794457.9134216
1768794457921.234,1267.3992673992673,,0,-1,1768794457.921234
1768794457929.0466,1266.6666666666663,,0,-1,1768794457.9290466
1768794457936.8591,1271.062271062271,,0,-1,1768794457.9368591
1768794457944.6716,1273.992673992674,,0,-1,1768794457.9446716
1768794457952.484,1278.3882783882782,,0,-1,1768794457.952484
1768794457960.2966,1285.7142857142856,,0,-1,1768794457.9602966
1768794457968.1091,1292.3076923076922,,0,-1,1768794457.9681091
1768794457975.9216,1293.7728937728937,,0,-1,1768794457.9759216
1768794457983.734,1293.040293040293,,0,-1,1768794457.983734
1768794457991.5466,1295.2380952380952,,0,-1,1768794457.9915466
1768794457999.3591,1301.098901098901,,0,-1,1768794457.9993591
1768794458007.1716,1301.8315018315018,,0,-1,1768794458.0071716
1768794458014.984,1301.098901098901,,0,-1,1768794458.014984
1768794458022.7966,1299.6336996336995,,0,-1,1768794458.0227966
1768794458030.6091,1297.4358974358977,,0,-1,1768794458.0306091
1768794458038.4216,1293.7728937728937,,0,-1,1768794458.0384216
1768794458046.234,1293.040293040293,,0,-1,1768794458.046234
1768794458054.0466,1289.3772893772891,,0,-1,1768794458.0540466
1768794458061.8591,1290.10989010989,,0,-1,1768794458.0618591
1768794458069.6716,1293.040293040293,,0,-1,1768794458.0696716
1768794458077.484,1292.3076923076922,,0,-1,1768794458.077484
1768794458085.2966,1298.168498168498,,0,-1,1768794458.0852966
1768794458093.1091,1309.89010989011,,0,-1,1768794458.0931091
1768794458100.9216,1320.14652014652,,0,-1,1768794458.1009216
1768794458108.734,1336.9963369963368,,0,-1,1768794458.108734
1768794458116.5466,1349.4505494505493,,0,-1,1768794458.1165466
1768794458124.3591,1359.7069597069597,,0,-1,1768794458.1243591
1768794458132.1716,1372.8937728937728,,0,-1,1768794458.1321716
1768794458139.984,1380.952380952381,,0,-1,1768794458.139984
1768794458147.7966,1385.3479853479853,,0,-1,1768794458.1477966
1768794458155.6091,1393.4065934065934,,0,-1,1768794458.1556091
1768794458163.4216,1402.9304029304028,,0,-1,1768794458.1634216
1768794458171.234,1410.2564102564102,,0,-1,1768794458.171234
1768794458179.0466,1421.9780219780218,,0,-1,1768794458.1790466
1768794458186.8591,1433.6996336996335,,0,-1,1768794458.1868591
1768794458194.6716,1440.29304029304,,0,-1,1768794458.1946716
1768794458202.484,1452.014652014652,,0,-1,1768794458.202484
1768794458210.2966,1459.3406593406592,,0,-1,1768794458.2102966
1768794458218.1091,1461.5384615384614,,0,-1,1768794458.2181091
1768794458225.9216,1470.3296703296703,,0,-1,1768794458.2259216
1768794458233.734,1476.923076923077,,0,-1,1768794458.233734
1768794458241.5466,1482.051282051282,,0,-1,1768794458.2415466
1768794458249.3591,1487.9120879120878,,0,-1,1768794458.2493591
1768794458257.1716,1484.9816849816848,,0,-1,1768794458.2571716
1768794458264.984,1486.4468864468863,,0,-1,1768794458.264984
1768794458272.7966,1482.051282051282,,0,-1,1768794458.2727966
1768794458280.6091,1479.8534798534797,,0,-1,1768794458.2806091
1768794458288.4216,1473.260073260073,,0,-1,1768794458.2884216
1768794458296.234,1465.201465201465,,0,-1,1768794458.296234
1768794458304.0466,1459.3406593406592,,0,-1,1768794458.3040466
1768794458311.8591,1449.084249084249,,0,-1,1768794458.3118591
1768794458319.6716,1442.4908424908424,,0,-1,1768794458.3196716
1768794458327.484,1430.7692307692307,,0,-1,1768794458.327484
1768794458335.2966,1427.106227106227,,0,-1,1768794458.3352966
1768794458343.1091,1427.8388278388277,,0,-1,1768794458.3431091
1768794458350.9216,1427.106227106227,,0,-1,1768794458.3509216
1768794458358.734,1432.2344322344322,,0,-1,1768794458.358734
1768794458366.5466,1433.6996336996335,,0,-1,1768794458.3665466
1768794458374.3591,1438.095238095238,,0,-1,1768794458.3743591
1768794458382.1716,1438.8278388278388,,0,-1,1768794458.3821716
1768794458389.984,1443.2234432234432,,0,-1,1768794458.389984
1768794458397.7966,1444.688644688645,,0,-1,1768794458.3977966
1768794458405.6091,1449.084249084249,,0,-1,1768794458.4056091
1768794458413.4216,1452.014652014652,,0,-1,1768794458.4134216
1768794458421.234,1451.2820512820513,,0,-1,1768794458.421234
1768794458429.0466,1454.9450549450548,,0,-1,1768794458.4290466
1768794458436.8591,1454.212454212454,,0,-1,1768794458.4368591
1768794458444.6716,1451.2820512820513,,0,-1,1768794458.4446716
1768794458452.484,1447.6190476190477,,0,-1,1768794458.452484
1768794458460.2966,1436.6300366300366,,0,-1,1768794458.4602966
1768794458468.1091,1431.5018315018317,,0,-1,1768794458.4681091
1768794458475.9216,1425.6410256410256,,0,-1,1768794458.4759216
1768794458483.734,1425.6410256410256,,0,-1,1768794458.483734
1768794458491.5466,1424.175824175824,,0,-1,1768794458.4915466
1768794458499.3591,1419.7802197802198,,0,-1,1768794458.4993591
1768794458507.1716,1416.117216117216,,0,-1,1768794458.5071716
1768794458514.984,1405.8608058608058,,0,-1,1768794458.514984
1768794458522.7966,1401.4652014652013,,0,-1,1768794458.5227966
1768794458530.6091,1394.139194139194,,0,-1,1768794458.5306091
1768794458538.4216,1389.7435897435896,,1,2,1768794458.5384216
1768794458546.234,1383.150183150183,,1,2,1768794458.546234
1768794458554.0466,1377.2893772893772,,1,2,1768794458.5540466
1768794458561.8591,1375.091575091575,,1,2,1768794458.5618591
1768794458569.6716,1372.8937728937728,,1,2,1768794458.5696716
1768794458577.484,1375.091575091575,,1,2,1768794458.577484
1768794458585.2966,1373.6263736263736,,1,2,1768794458.5852966
1768794458593.1091,1377.2893772893772,,1,2,1768794458.5931091
1768794458600.9216,1379.4871794871794,,1,2,1768794458.6009216
1768794458608.734,1384.6153846153843,,1,2,1768794458.608734
1768794458616.5466,1392.6739926739926,,1,2,1768794458.6165466
1768794458624.3591,1394.8717948717947,,1,2,1768794458.6243591
1768794458632.1716,1396.3369963369962,,1,2,1768794458.6321716
1768794458639.984,1390.4761904761904,,1,2,1768794458.639984
1768794458647.7966,1380.952380952381,,1,2,1768794458.6477966
1768794458655.6091,1373.6263736263736,,1,2,1768794458.6556091
1768794458663.4216,1364.102564102564,,1,2,1768794458.6634216
1768794458671.234,1356.7765567765566,,1,2,1768794458.671234
1768794458679.0466,1350.9157509157508,,1,2,1768794458.6790466
1768794458686.8591,1340.6593406593406,,1,2,1768794458.6868591
1768794458694.6716,1331.8681318681315,,1,2,1768794458.6946716
1768794458702.484,1327.4725274725274,,1,2,1768794458.702484
1768794458710.2966,1325.2747252747251,,1,2,1768794458.7102966
1768794458718.1091,1319.4139194139193,,1,2,1768794458.7181091
1768794458725.9216,1315.7509157509155,,1,2,1768794458.7259216
1768794458733.734,1314.2857142857142,,1,2,1768794458.733734
1768794458741.5466,1308.4249084249084,,1,2,1768794458.7415466
1768794458749.3591,1303.2967032967033,,1,2,1768794458.7493591
1768794458757.1716,1302.5641025641023,,1,2,1768794458.7571716
1768794458764.984,1303.2967032967033,,1,2,1768794458.764984
1768794458772.7966,1300.3663003663005,,1,2,1768794458.7727966
1768794458780.6091,1298.168498168498,,1,2,1768794458.7806091
1768794458788.4216,1296.7032967032967,,1,2,1768794458.7884216
1768794458796.234,1298.9010989010987,,1,2,1768794458.796234
1768794458804.0466,1302.5641025641023,,1,2,1768794458.8040466
1768794458811.8591,1303.2967032967033,,1,2,1768794458.8118591
1768794458819.6716,1305.4945054945051,,1,2,1768794458.8196716
1768794458827.484,1303.2967032967033,,1,2,1768794458.827484
1768794458835.2966,1307.6923076923076,,1,2,1768794458.8352966
1768794458843.1091,1309.1575091575091,,1,2,1768794458.8431091
1768794458850.9216,1315.7509157509155,,1,2,1768794458.8509216
1768794458858.734,1319.4139194139193,,1,2,1768794458.858734
1768794458866.5466,1320.14652014652,,1,2,1768794458.8665466
1768794458874.3591,1325.2747252747251,,1,2,1768794458.8743591
1768794458882.1716,1325.2747252747251,,1,2,1768794458.8821716
1768794458889.984,1327.4725274725274,,1,2,1768794458.889984
1768794458897.7966,1330.4029304029302,,1,2,1768794458.8977966
1768794458905.6091,1331.135531135531,,1,2,1768794458.9056091
1768794458913.4216,1341.3919413919414,,1,2,1768794458.9134216
1768794458921.234,1342.857142857143,,1,2,1768794458.921234
1768794458929.0466,1347.2527472527472,,1,2,1768794458.9290466
1768794458936.8591,1343.5897435897434,,1,2,1768794458.9368591
1768794458944.6716,1334.7985347985348,,1,2,1768794458.9446716
1768794458952.484,1328.937728937729,,1,2,1768794458.952484
1768794458960.2966,1320.14652014652,,1,2,1768794458.9602966
1768794458968.1091,1312.8205128205127,,1,2,1768794458.9681091
1768794458975.9216,1313.5531135531137,,1,2,1768794458.9759216
1768794458983.734,1312.087912087912,,1,2,1768794458.983734
1768794458991.5466,1309.89010989011,,1,2,1768794458.9915466
1768794458999.3591,1308.4249084249084,,1,2,1768794458.9993591
1768794459007.1716,1303.2967032967033,,1,2,1768794459.0071716
1768794459014.984,1293.7728937728937,,1,2,1768794459.014984
1768794459022.7966,1285.7142857142856,,1,2,1768794459.0227966
1768794459030.6091,1279.8534798534797,,1,2,1768794459.0306091
1768794459038.4216,1271.7948717948716,,1,2,1768794459.0384216
1768794459046.234,1265.2014652014652,,1,2,1768794459.046234
1768794459054.0466,1264.4688644688645,,1,2,1768794459.0540466
1768794459061.8591,1268.131868131868,,1,2,1768794459.0618591
1768794459069.6716,1269.5970695970695,,1,2,1768794459.0696716
1768794459077.484,1269.5970695970695,,1,2,1768794459.077484
1768794459085.2966,1270.3296703296703,,1,2,1768794459.0852966
1768794459093.1091,1270.3296703296703,,1,2,1768794459.0931091
1768794459100.9216,1273.260073260073,,1,2,1768794459.1009216
1768794459108.734,1279.120879120879,,1,2,1768794459.108734
1768794459116.5466,1289.3772893772891,,1,2,1768794459.1165466
1768794459124.3591,1301.8315018315018,,1,2,1768794459.1243591
1768794459132.1716,1317.216117216117,,1,2,1768794459.1321716
1768794459139.984,1328.2051282051282,,1,2,1768794459.139984
1768794459147.7966,1332.6007326007325,,1,2,1768794459.1477966
1768794459155.6091,1326.739926739927,,1,2,1768794459.1556091
1768794459163.4216,1323.076923076923,,1,2,1768794459.1634216
1768794459171.234,1319.4139194139193,,1,2,1768794459.171234
1768794459179.0466,1317.216117216117,,1,2,1768794459.1790466
1768794459186.8591,1317.9487179487178,,1,2,1768794459.1868591
1768794459194.6716,1322.3443223443223,,1,2,1768794459.1946716
1768794459202.484,1329.6703296703297,,1,2,1768794459.202484
1768794459210.2966,1334.065934065934,,1,2,1768794459.2102966
1768794459218.1091,1337.7289377289376,,1,2,1768794459.2181091
1768794459225.9216,1343.5897435897434,,1,2,1768794459.2259216
1768794459233.734,1353.113553113553,,1,2,1768794459.233734
1768794459241.5466,1365.5677655677655,,1,2,1768794459.2415466
1768794459249.3591,1377.2893772893772,,1,2,1768794459.2493591
1768794459257.1716,1386.8131868131868,,1,2,1768794459.2571716
1768794459264.984,1391.2087912087911,,1,2,1768794459.264984
1768794459272.7966,1391.941391941392,,1,2,1768794459.2727966
1768794459280.6091,1391.941391941392,,1,2,1768794459.2806091
1768794459288.4216,1394.139194139194,,1,2,1768794459.2884216
1768794459296.234,1397.8021978021975,,1,2,1768794459.296234
1768794459304.0466,1402.9304029304028,,1,2,1768794459.3040466
1768794459311.8591,1408.058608058608,,1,2,1768794459.3118591
1768794459319.6716,1412.4542124542124,,1,2,1768794459.3196716
1768794459327.484,1416.8498168498168,,1,2,1768794459.327484
1768794459335.2966,1420.5128205128203,,1,2,1768794459.3352966
1768794459343.1091,1419.047619047619,,1,2,1768794459.3431091
1768794459350.9216,1418.3150183150185,,1,2,1768794459.3509216
1768794459358.734,1418.3150183150185,,1,2,1768794459.358734
1768794459366.5466,1417.5824175824175,,1,2,1768794459.3665466
1768794459374.3591,1413.9194139194135,,1,2,1768794459.3743591
1768794459382.1716,1409.5238095238094,,1,2,1768794459.3821716
1768794459389.984,1406.5934065934066,,1,2,1768794459.389984
1768794459397.7966,1405.128205128205,,1,2,1768794459.3977966
1768794459405.6091,1402.197802197802,,1,2,1768794459.4056091
1768794459413.4216,1401.4652014652013,,1,2,1768794459.4134216
1768794459421.234,1400.0,,1,2,1768794459.421234
1768794459429.0466,1400.0,,1,2,1768794459.4290466
1768794459436.8591,1394.8717948717947,,1,2,1768794459.4368591
1768794459444.6716,1386.080586080586,,1,2,1768794459.4446716
1768794459452.484,1379.4871794871794,,1,2,1768794459.452484
1768794459460.2966,1379.4871794871794,,1,2,1768794459.4602966
1768794459468.1091,1383.150183150183,,1,2,1768794459.4681091
1768794459475.9216,1389.7435897435896,,1,2,1768794459.4759216
1768794459483.734,1394.139194139194,,1,2,1768794459.483734
1768794459491.5466,1395.6043956043954,,1,2,1768794459.4915466
1768794459499.3591,1394.8717948717947,,1,2,1768794459.4993591
1768794459507.1716,1397.069597069597,,1,2,1768794459.5071716
1768794459514.984,1398.5347985347985,,1,2,1768794459.514984
1768794459522.7966,1400.0,,1,2,1768794459.5227966
1768794459530.6091,1402.197802197802,,1,2,1768794459.5306091
1768794459538.4216,1407.3260073260071,,1,2,1768794459.5384216
1768794459546.234,1416.117216117216,,1,2,1768794459.546234
1768794459554.0466,1424.175824175824,,1,2,1768794459.5540466
1768794459561.8591,1427.8388278388277,,1,2,1768794459.5618591
1768794459569.6716,1432.2344322344322,,1,2,1768794459.5696716
1768794459577.484,1435.8974358974358,,1,2,1768794459.577484
1768794459585.2966,1436.6300366300366,,1,2,1768794459.5852966
1768794459593.1091,1434.4322344322345,,1,2,1768794459.5931091
1768794459600.9216,1432.2344322344322,,1,2,1768794459.6009216
1768794459608.734,1426.3736263736262,,1,2,1768794459.608734
1768794459616.5466,1418.3150183150185,,1,2,1768794459.6165466
1768794459624.3591,1407.3260073260071,,1,2,1768794459.6243591
1768794459632.1716,1394.8717948717947,,1,2,1768794459.6321716
1768794459639.984,1381.6849816849815,,1,2,1768794459.639984
1768794459647.7966,1373.6263736263736,,1,2,1768794459.6477966
1768794459655.6091,1369.9633699633698,,1,2,1768794459.6556091
1768794459663.4216,1367.032967032967,,1,2,1768794459.6634216
1768794459671.234,1364.102564102564,,1,2,1768794459.671234
1768794459679.0466,1364.102564102564,,1,2,1768794459.6790466
1768794459686.8591,1366.3003663003662,,1,2,1768794459.6868591
1768794459694.6716,1367.7655677655678,,1,2,1768794459.6946716
1768794459702.484,1367.7655677655678,,1,2,1768794459.702484
1768794459710.2966,1362.6373626373625,,1,2,1768794459.7102966
1768794459718.1091,1360.4395604395604,,1,2,1768794459.7181091
1768794459725.9216,1359.7069597069597,,1,2,1768794459.7259216
1768794459733.734,1356.7765567765566,,1,2,1768794459.733734
1768794459741.5466,1359.7069597069597,,1,2,1768794459.7415466
1768794459749.3591,1366.3003663003662,,1,2,1768794459.7493591
1768794459757.1716,1372.8937728937728,,1,2,1768794459.7571716
1768794459764.984,1377.2893772893772,,1,2,1768794459.764984
1768794459772.7966,1378.7545787545787,,1,2,1768794459.7727966
1768794459780.6091,1378.7545787545787,,1,2,1768794459.7806091
1768794459788.4216,1374.3589743589744,,1,2,1768794459.7884216
1768794459796.234,1368.4981684981683,,1,2,1768794459.796234
1768794459804.0466,1364.102564102564,,1,2,1768794459.8040466
1768794459811.8591,1360.4395604395604,,1,2,1768794459.8118591
1768794459819.6716,1356.043956043956,,1,2,1768794459.8196716
1768794459827.484,1351.6483516483515,,1,2,1768794459.827484
1768794459835.2966,1347.985347985348,,1,2,1768794459.8352966
1768794459843.1091,1342.857142857143,,1,2,1768794459.8431091
1768794459850.9216,1340.6593406593406,,1,2,1768794459.8509216
1768794459858.734,1339.194139194139,,1,2,1768794459.858734
1768794459866.5466,1335.5311355311355,,1,2,1768794459.8665466
1768794459874.3591,1332.6007326007325,,1,2,1768794459.8743591
1768794459882.1716,1329.6703296703297,,1,2,1768794459.8821716
1768794459889.984,1327.4725274725274,,1,2,1768794459.889984
1768794459897.7966,1319.4139194139193,,1,2,1768794459.8977966
1768794459905.6091,1315.018315018315,,1,2,1768794459.9056091
1768794459913.4216,1314.2857142857142,,1,2,1768794459.9134216
1768794459921.234,1309.89010989011,,1,2,1768794459.921234
1768794459929.0466,1307.6923076923076,,1,2,1768794459.9290466
1768794459936.8591,1309.1575091575091,,1,2,1768794459.9368591
1768794459944.6716,1315.018315018315,,1,2,1768794459.9446716
1768794459952.484,1321.6117216117216,,1,2,1768794459.952484
1768794459960.2966,1328.2051282051282,,1,2,1768794459.9602966
1768794459968.1091,1335.5311355311355,,1,2,1768794459.9681091
1768794459975.9216,1340.6593406593406,,1,2,1768794459.9759216
1768794459983.734,1337.7289377289376,,1,2,1768794459.983734
1768794459991.5466,1330.4029304029302,,1,2,1768794459.9915466
1768794459999.3591,1327.4725274725274,,1,2,1768794459.9993591
1768794460007.1716,1325.2747252747251,,1,2,1768794460.0071716
1768794460014.984,1321.6117216117216,,1,2,1768794460.014984
1768794460022.7966,1320.14652014652,,1,2,1768794460.0227966
1768794460030.6091,1318.6813186813183,,1,2,1768794460.0306091
1768794460038.4216,1321.6117216117216,,1,2,1768794460.0384216
1768794460046.234,1321.6117216117216,,1,2,1768794460.046234
1768794460054.0466,1316.4835164835165,,1,2,1768794460.0540466
1768794460061.8591,1314.2857142857142,,1,2,1768794460.0618591
1768794460069.6716,1306.9597069597069,,1,2,1768794460.0696716
1768794460077.484,1301.8315018315018,,1,2,1768794460.077484
1768794460085.2966,1298.9010989010987,,1,2,1768794460.0852966
1768794460093.1091,1295.2380952380952,,1,2,1768794460.0931091
1768794460100.9216,1301.098901098901,,1,2,1768794460.1009216
1768794460108.734,1309.89010989011,,1,2,1768794460.108734
1768794460116.5466,1318.6813186813183,,1,2,1768794460.1165466
1768794460124.3591,1322.3443223443223,,1,2,1768794460.1243591
1768794460132.1716,1323.076923076923,,1,2,1768794460.1321716
1768794460139.984,1322.3443223443223,,1,2,1768794460.139984
1768794460147.7966,1320.14652014652,,1,2,1768794460.1477966
1768794460155.6091,1311.3553113553112,,1,2,1768794460.1556091
1768794460163.4216,1306.227106227106,,1,2,1768794460.1634216
1768794460171.234,1301.098901098901,,1,2,1768794460.171234
1768794460179.0466,1299.6336996336995,,1,2,1768794460.1790466
1768794460186.8591,1305.4945054945051,,1,2,1768794460.1868591
1768794460194.6716,1315.018315018315,,1,2,1768794460.1946716
1768794460202.484,1324.5421245421244,,1,2,1768794460.202484
1768794460210.2966,1336.263736263736,,1,2,1768794460.2102966
1768794460218.1091,1351.6483516483515,,1,2,1768794460.2181091
1768794460225.9216,1362.6373626373625,,1,2,1768794460.2259216
1768794460233.734,1371.428571428571,,1,2,1768794460.233734
1768794460241.5466,1380.952380952381,,1,2,1768794460.2415466
1768794460249.3591,1385.3479853479853,,1,2,1768794460.2493591
1768794460257.1716,1384.6153846153843,,1,2,1768794460.2571716
1768794460264.984,1387.5457875457876,,1,2,1768794460.264984
1768794460272.7966,1391.941391941392,,1,2,1768794460.2727966
1768794460280.6091,1397.069597069597,,1,2,1768794460.2806091
1768794460288.4216,1400.0,,1,2,1768794460.2884216
1768794460296.234,1397.069597069597,,1,2,1768794460.296234
1768794460304.0466,1395.6043956043954,,1,2,1768794460.3040466
1768794460311.8591,1396.3369963369962,,1,2,1768794460.3118591
1768794460319.6716,1394.139194139194,,1,2,1768794460.3196716
1768794460327.484,1395.6043956043954,,1,2,1768794460.327484
1768794460335.2966,1394.139194139194,,1,2,1768794460.3352966
1768794460343.1091,1392.6739926739926,,1,2,1768794460.3431091
1768794460350.9216,1395.6043956043954,,1,2,1768794460.3509216
1768794460358.734,1394.8717948717947,,1,2,1768794460.358734
1768794460366.5466,1393.4065934065934,,1,2,1768794460.3665466
1768794460374.3591,1400.0,,1,2,1768794460.3743591
1768794460382.1716,1400.0,,1,2,1768794460.3821716
1768794460389.984,1397.069597069597,,1,2,1768794460.389984
1768794460397.7966,1394.8717948717947,,1,2,1768794460.3977966
1768794460405.6091,1387.5457875457876,,1,2,1768794460.4056091
1768794460413.4216,1379.4871794871794,,1,2,1768794460.4134216
1768794460421.234,1367.7655677655678,,1,2,1768794460.421234
1768794460429.0466,1358.241758241758,,1,2,1768794460.4290466
1768794460436.8591,1347.985347985348,,1,2,1768794460.4368591
1768794460444.6716,1341.3919413919414,,1,2,1768794460.4446716
1768794460452.484,1342.857142857143,,1,2,1768794460.452484
1768794460460.2966,1342.857142857143,,1,2,1768794460.4602966
1768794460468.1091,1349.4505494505493,,1,2,1768794460.4681091
1768794460475.9216,1350.9157509157508,,1,2,1768794460.4759216
1768794460483.734,1357.5091575091574,,1,2,1768794460.483734
1768794460491.5466,1360.4395604395604,,1,2,1768794460.4915466
1768794460499.3591,1367.7655677655678,,1,2,1768794460.4993591
1768794460507.1716,1370.6959706959706,,1,2,1768794460.5071716
1768794460514.984,1376.5567765567764,,1,2,1768794460.514984
1768794460522.7966,1376.5567765567764,,1,2,1768794460.5227966
1768794460530.6091,1380.2197802197802,,1,2,1768794460.5306091
1768794460538.4216,1378.021978021978,,1,2,1768794460.5384216
1768794460546.234,1380.952380952381,,1,2,1768794460.546234
1768794460554.0466,1383.150183150183,,1,2,1768794460.5540466
1768794460561.8591,1388.278388278388,,1,2,1768794460.5618591
1768794460569.6716,1389.0109890109889,,1,2,1768794460.5696716
1768794460577.484,1387.5457875457876,,1,2,1768794460.577484
1768794460585.2966,1382.4175824175825,,1,2,1768794460.5852966
1768794460593.1091,1375.091575091575,,1,2,1768794460.5931091
1768794460600.9216,1372.161172161172,,1,2,1768794460.6009216
1768794460608.734,1362.6373626373625,,1,2,1768794460.608734
1768794460616.5466,1356.7765567765566,,1,2,1768794460.6165466
1768794460624.3591,1347.985347985348,,1,2,1768794460.6243591
1768794460632.1716,1342.124542124542,,1,2,1768794460.6321716
1768794460639.984,1336.9963369963368,,1,2,1768794460.639984
1768794460647.7966,1335.5311355311355,,1,2,1768794460.6477966
1768794460655.6091,1336.263736263736,,1,2,1768794460.6556091
1768794460663.4216,1334.7985347985348,,1,2,1768794460.6634216
1768794460671.234,1335.5311355311355,,1,2,1768794460.671234
1768794460679.0466,1336.9963369963368,,1,2,1768794460.6790466
1768794460686.8591,1334.7985347985348,,1,2,1768794460.6868591
1768794460694.6716,1333.3333333333333,,1,2,1768794460.6946716
1768794460702.484,1330.4029304029302,,0,-1,1768794460.702484
1768794460710.2966,1332.6007326007325,,0,-1,1768794460.7102966
1768794460718.1091,1334.065934065934,,0,-1,1768794460.7181091
1768794460725.9216,1339.92673992674,,0,-1,1768794460.7259216
1768794460733.734,1336.263736263736,,0,-1,1768794460.733734
1768794460741.5466,1336.263736263736,,0,-1,1768794460.7415466
1768794460749.3591,1332.6007326007325,,0,-1,1768794460.7493591
1768794460757.1716,1328.937728937729,,0,-1,1768794460.7571716
1768794460764.984,1328.2051282051282,,0,-1,1768794460.764984
1768794460772.7966,1320.8791208791208,,0,-1,1768794460.7727966
1768794460780.6091,1318.6813186813183,,0,-1,1768794460.7806091
1768794460788.4216,1312.8205128205127,,0,-1,1768794460.7884216
1768794460796.234,1314.2857142857142,,0,-1,1768794460.796234
1768794460804.0466,1309.1575091575091,,0,-1,1768794460.8040466
1768794460811.8591,1307.6923076923076,,0,-1,1768794460.8118591
1768794460819.6716,1302.5641025641023,,0,-1,1768794460.8196716
1768794460827.484,1304.0293040293038,,0,-1,1768794460.827484
1768794460835.2966,1304.0293040293038,,0,-1,1768794460.8352966
1768794460843.1091,1312.8205128205127,,0,-1,1768794460.8431091
1768794460850.9216,1316.4835164835165,,0,-1,1768794460.8509216
1768794460858.734,1323.076923076923,,0,-1,1768794460.858734
1768794460866.5466,1333.3333333333333,,0,-1,1768794460.8665466
1768794460874.3591,1337.7289377289376,,0,-1,1768794460.8743591
1768794460882.1716,1349.4505494505493,,0,-1,1768794460.8821716
1768794460889.984,1356.043956043956,,0,-1,1768794460.889984
1768794460897.7966,1361.1721611721612,,0,-1,1768794460.8977966
1768794460905.6091,1364.102564102564,,0,-1,1768794460.9056091
1768794460913.4216,1361.1721611721612,,0,-1,1768794460.9134216
1768794460921.234,1361.1721611721612,,0,-1,1768794460.921234
1768794460929.0466,1356.043956043956,,0,-1,1768794460.9290466
1768794460936.8591,1353.8461538461538,,0,-1,1768794460.9368591
1768794460944.6716,1350.9157509157508,,0,-1,1768794460.9446716
1768794460952.484,1342.124542124542,,0,-1,1768794460.952484
1768794460960.2966,1336.263736263736,,0,-1,1768794460.9602966
1768794460968.1091,1327.4725274725274,,0,-1,1768794460.9681091
1768794460975.9216,1328.2051282051282,,0,-1,1768794460.9759216
1768794460983.734,1327.4725274725274,,0,-1,1768794460.983734
1768794460991.5466,1328.2051282051282,,0,-1,1768794460.9915466
1768794460999.3591,1326.739926739927,,0,-1,1768794460.9993591
1768794461007.1716,1322.3443223443223,,0,-1,1768794461.0071716
1768794461014.984,1320.8791208791208,,0,-1,1768794461.014984
1768794461022.7966,1317.216117216117,,0,-1,1768794461.0227966
1768794461030.6091,1317.216117216117,,0,-1,1768794461.0306091
1768794461038.4216,1317.9487179487178,,0,-1,1768794461.0384216
1768794461046.234,1319.4139194139193,,0,-1,1768794461.046234
1768794461054.0466,1316.4835164835165,,0,-1,1768794461.0540466
1768794461061.8591,1321.6117216117216,,0,-1,1768794461.0618591
1768794461069.6716,1322.3443223443223,,0,-1,1768794461.0696716
1768794461077.484,1325.2747252747251,,0,-1,1768794461.077484
1768794461085.2966,1324.5421245421244,,0,-1,1768794461.0852966
1768794461093.1091,1327.4725274725274,,0,-1,1768794461.0931091
1768794461100.9216,1335.5311355311355,,0,-1,1768794461.1009216
1768794461108.734,1341.3919413919414,,0,-1,1768794461.108734
1768794461116.5466,1349.4505494505493,,0,-1,1768794461.1165466
1768794461124.3591,1348.7179487179487,,0,-1,1768794461.1243591
1768794461132.1716,1352.3809523809523,,0,-1,1768794461.1321716
1768794461139.984,1352.3809523809523,,0,-1,1768794461.139984
1768794461147.7966,1350.18315018315,,0,-1,1768794461.1477966
1768794461155.6091,1352.3809523809523,,0,-1,1768794461.1556091
1768794461163.4216,1355.311355311355,,0,-1,1768794461.1634216
1768794461171.234,1364.8351648351647,,0,-1,1768794461.171234
1768794461179.0466,1378.021978021978,,0,-1,1768794461.1790466
1768794461186.8591,1385.3479853479853,,0,-1,1768794461.1868591
1768794461194.6716,1394.139194139194,,0,-1,1768794461.1946716
1768794461202.484,1404.3956043956043,,0,-1,1768794461.202484
1768794461210.2966,1408.058608058608,,0,-1,1768794461.2102966
1768794461218.1091,1413.9194139194135,,0,-1,1768794461.2181091
1768794461225.9216,1409.5238095238094,,0,-1,1768794461.2259216
1768794461233.734,1406.5934065934066,,0,-1,1768794461.233734
1768794461241.5466,1405.8608058608058,,0,-1,1768794461.2415466
1768794461249.3591,1403.6630036630036,,0,-1,1768794461.2493591
1768794461257.1716,1408.7912087912086,,0,-1,1768794461.2571716
1768794461264.984,1410.2564102564102,,0,-1,1768794461.264984
1768794461272.7966,1410.2564102564102,,0,-1,1768794461.2727966
1768794461280.6091,1408.058608058608,,0,-1,1768794461.2806091
1768794461288.4216,1399.2673992673992,,0,-1,1768794461.2884216
1768794461296.234,1391.2087912087911,,0,-1,1768794461.296234
1768794461304.0466,1380.952380952381,,0,-1,1768794461.3040466
1768794461311.8591,1369.230769230769,,0,-1,1768794461.3118591
1768794461319.6716,1368.4981684981683,,0,-1,1768794461.3196716
1768794461327.484,1366.3003663003662,,0,-1,1768794461.327484
1768794461335.2966,1367.7655677655678,,0,-1,1768794461.3352966
1768794461343.1091,1373.6263736263736,,0,-1,1768794461.3431091
1768794461350.9216,1375.091575091575,,0,-1,1768794461.3509216
1768794461358.734,1378.7545787545787,,0,-1,1768794461.358734
1768794461366.5466,1374.3589743589744,,0,-1,1768794461.3665466
1768794461374.3591,1370.6959706959706,,0,-1,1768794461.3743591
1768794461382.1716,1371.428571428571,,0,-1,1768794461.3821716
1768794461389.984,1372.8937728937728,,0,-1,1768794461.389984
1768794461397.7966,1375.8241758241757,,0,-1,1768794461.3977966
1768794461405.6091,1380.952380952381,,0,-1,1768794461.4056091
1768794461413.4216,1379.4871794871794,,0,-1,1768794461.4134216
1768794461421.234,1380.952380952381,,0,-1,1768794461.421234
1768794461429.0466,1380.952380952381,,0,-1,1768794461.4290466
1768794461436.8591,1374.3589743589744,,0,-1,1768794461.4368591
1768794461444.6716,1372.161172161172,,0,-1,1768794461.4446716
1768794461452.484,1369.230769230769,,0,-1,1768794461.452484
1768794461460.2966,1364.8351648351647,,0,-1,1768794461.4602966
1768794461468.1091,1364.102564102564,,0,-1,1768794461.4681091
1768794461475.9216,1365.5677655677655,,0,-1,1768794461.4759216
1768794461483.734,1362.6373626373625,,0,-1,1768794461.483734
1768794461491.5466,1362.6373626373625,,0,-1,1768794461.4915466
1768794461499.3591,1358.241758241758,,0,-1,1768794461.4993591
1768794461507.1716,1353.8461538461538,,0,-1,1768794461.5071716
1768794461514.984,1352.3809523809523,,0,-1,1768794461.514984
1768794461522.7966,1350.18315018315,,0,-1,1768794461.5227966
1768794461530.6091,1346.5201465201465,,0,-1,1768794461.5306091
1768794461538.4216,1345.054945054945,,0,-1,1768794461.5384216
1768794461546.234,1344.3223443223442,,0,-1,1768794461.546234
1768794461554.0466,1342.857142857143,,0,-1,1768794461.5540466
1768794461561.8591,1344.3223443223442,,0,-1,1768794461.5618591
1768794461569.6716,1344.3223443223442,,0,-1,1768794461.5696716
1768794461577.484,1343.5897435897434,,0,-1,1768794461.577484
1768794461585.2966,1347.2527472527472,,0,-1,1768794461.5852966
1768794461593.1091,1345.7875457875457,,0,-1,1768794461.5931091
1768794461600.9216,1350.9157509157508,,0,-1,1768794461.6009216
1768794461608.734,1356.043956043956,,0,-1,1768794461.608734
1768794461616.5466,1356.7765567765566,,0,-1,1768794461.6165466
1768794461624.3591,1359.7069597069597,,0,-1,1768794461.6243591
1768794461632.1716,1358.974358974359,,0,-1,1768794461.6321716
1768794461639.984,1350.9157509157508,,0,-1,1768794461.639984
1768794461647.7966,1344.3223443223442,,0,-1,1768794461.6477966
1768794461655.6091,1343.5897435897434,,0,-1,1768794461.6556091
1768794461663.4216,1346.5201465201465,,0,-1,1768794461.6634216
1768794461671.234,1350.18315018315,,0,-1,1768794461.671234
1768794461679.0466,1353.8461538461538,,0,-1,1768794461.6790466
1768794461686.8591,1356.043956043956,,0,-1,1768794461.6868591
1768794461694.6716,1358.974358974359,,0,-1,1768794461.6946716
1768794461702.484,1360.4395604395604,,0,-1,1768794461.702484
1768794461710.2966,1356.043956043956,,0,-1,1768794461.7102966
1768794461718.1091,1354.5787545787546,,0,-1,1768794461.7181091
1768794461725.9216,1354.5787545787546,,0,-1,1768794461.7259216
1768794461733.734,1348.7179487179487,,0,-1,1768794461.733734
1768794461741.5466,1339.92673992674,,0,-1,1768794461.7415466
1768794461749.3591,1331.8681318681315,,0,-1,1768794461.7493591
1768794461757.1716,1325.2747252747251,,0,-1,1768794461.7571716
1768794461764.984,1316.4835164835165,,0,-1,1768794461.764984
1768794461772.7966,1309.89010989011,,0,-1,1768794461.7727966
1768794461780.6091,1306.9597069597069,,0,-1,1768794461.7806091
1768794461788.4216,1304.0293040293038,,0,-1,1768794461.7884216
1768794461796.234,1299.6336996336995,,0,-1,1768794461.796234
1768794461804.0466,1298.9010989010987,,0,-1,1768794461.8040466
1768794461811.8591,1300.3663003663005,,0,-1,1768794461.8118591
1768794461819.6716,1301.8315018315018,,0,-1,1768794461.8196716
1768794461827.484,1302.5641025641023,,0,-1,1768794461.827484
1768794461835.2966,1299.6336996336995,,0,-1,1768794461.8352966
1768794461843.1091,1300.3663003663005,,0,-1,1768794461.8431091
1768794461850.9216,1304.0293040293038,,0,-1,1768794461.8509216
1768794461858.734,1308.4249084249084,,0,-1,1768794461.858734
1768794461866.5466,1311.3553113553112,,0,-1,1768794461.8665466
1768794461874.3591,1317.9487179487178,,0,-1,1768794461.8743591
1768794461882.1716,1325.2747252747251,,0,-1,1768794461.8821716
1768794461889.984,1327.4725274725274,,0,-1,1768794461.889984
1768794461897.7966,1328.937728937729,,0,-1,1768794461.8977966
1768794461905.6091,1331.8681318681315,,0,-1,1768794461.9056091
1768794461913.4216,1335.5311355311355,,0,-1,1768794461.9134216
1768794461921.234,1336.9963369963368,,0,-1,1768794461.921234
1768794461929.0466,1339.92673992674,,0,-1,1768794461.9290466
1768794461936.8591,1343.5897435897434,,0,-1,1768794461.9368591
1768794461944.6716,1348.7179487179487,,0,-1,1768794461.9446716
1768794461952.484,1352.3809523809523,,0,-1,1768794461.952484
1768794461960.2966,1352.3809523809523,,0,-1,1768794461.9602966
1768794461968.1091,1354.5787545787546,,0,-1,1768794461.9681091
1768794461975.9216,1356.043956043956,,0,-1,1768794461.9759216
1768794461983.734,1358.974358974359,,0,-1,1768794461.983734
1768794461991.5466,1361.904761904762,,0,-1,1768794461.9915466
1768794461999.3591,1363.3699633699632,,0,-1,1768794461.9993591
1768794462007.1716,1364.8351648351647,,0,-1,1768794462.0071716
1768794462014.984,1366.3003663003662,,0,-1,1768794462.014984
1768794462022.7966,1369.230769230769,,0,-1,1768794462.0227966
1768794462030.6091,1378.021978021978,,0,-1,1768794462.0306091
1768794462038.4216,1389.7435897435896,,0,-1,1768794462.0384216
1768794462046.234,1398.5347985347985,,0,-1,1768794462.046234
1768794462054.0466,1406.5934065934066,,0,-1,1768794462.0540466
1768794462061.8591,1411.7216117216117,,0,-1,1768794462.0618591
1768794462069.6716,1416.117216117216,,0,-1,1768794462.0696716
1768794462077.484,1419.7802197802198,,0,-1,1768794462.077484
1768794462085.2966,1424.9084249084249,,0,-1,1768794462.0852966
1768794462093.1091,1428.5714285714284,,0,-1,1768794462.0931091
1768794462100.9216,1431.5018315018317,,0,-1,1768794462.1009216
1768794462108.734,1434.4322344322345,,0,-1,1768794462.108734
1768794462116.5466,1436.6300366300366,,0,-1,1768794462.1165466
1768794462124.3591,1437.362637362637,,0,-1,1768794462.1243591
1768794462132.1716,1435.8974358974358,,0,-1,1768794462.1321716
1768794462139.984,1433.6996336996335,,0,-1,1768794462.139984
1768794462147.7966,1430.03663003663,,0,-1,1768794462.1477966
1768794462155.6091,1429.3040293040292,,0,-1,1768794462.1556091
1768794462163.4216,1430.7692307692307,,0,-1,1768794462.1634216
1768794462171.234,1429.3040293040292,,0,-1,1768794462.171234
1768794462179.0466,1426.3736263736262,,0,-1,1768794462.1790466
1768794462186.8591,1421.9780219780218,,0,-1,1768794462.1868591
1768794462194.6716,1415.3846153846152,,0,-1,1768794462.1946716
1768794462202.484,1408.7912087912086,,0,-1,1768794462.202484
1768794462210.2966,1402.9304029304028,,0,-1,1768794462.2102966
1768794462218.1091,1397.069597069597,,0,-1,1768794462.2181091
1768794462225.9216,1391.941391941392,,0,-1,1768794462.2259216
1768794462233.734,1386.8131868131868,,0,-1,1768794462.233734
1768794462241.5466,1384.6153846153843,,0,-1,1768794462.2415466
1768794462249.3591,1382.4175824175825,,0,-1,1768794462.2493591
1768794462257.1716,1380.952380952381,,0,-1,1768794462.2571716
1768794462264.984,1379.4871794871794,,0,-1,1768794462.264984
1768794462272.7966,1381.6849816849815,,0,-1,1768794462.2727966
1768794462280.6091,1383.150183150183,,0,-1,1768794462.2806091
1768794462288.4216,1381.6849816849815,,0,-1,1768794462.2884216
1768794462296.234,1385.3479853479853,,0,-1,1768794462.296234
1768794462304.0466,1389.7435897435896,,0,-1,1768794462.3040466
1768794462311.8591,1393.4065934065934,,0,-1,1768794462.3118591
1768794462319.6716,1396.3369963369962,,0,-1,1768794462.3196716
1768794462327.484,1397.069597069597,,0,-1,1768794462.327484
1768794462335.2966,1392.6739926739926,,0,-1,1768794462.3352966
1768794462343.1091,1387.5457875457876,,0,-1,1768794462.3431091
1768794462350.9216,1384.6153846153843,,0,-1,1768794462.3509216
1768794462358.734,1383.150183150183,,0,-1,1768794462.358734
1768794462366.5466,1380.952380952381,,0,-1,1768794462.3665466
1768794462374.3591,1378.7545787545787,,0,-1,1768794462.3743591
1768794462382.1716,1376.5567765567764,,0,-1,1768794462.3821716
1768794462389.984,1375.8241758241757,,0,-1,1768794462.389984
1768794462397.7966,1377.2893772893772,,0,-1,1768794462.3977966
1768794462405.6091,1378.7545787545787,,0,-1,1768794462.4056091
1768794462413.4216,1377.2893772893772,,0,-1,1768794462.4134216
1768794462421.234,1372.161172161172,,0,-1,1768794462.421234
1768794462429.0466,1369.230769230769,,0,-1,1768794462.4290466
1768794462436.8591,1370.6959706959706,,0,-1,1768794462.4368591
1768794462444.6716,1377.2893772893772,,0,-1,1768794462.4446716
1768794462452.484,1384.6153846153843,,0,-1,1768794462.452484
1768794462460.2966,1390.4761904761904,,0,-1,1768794462.4602966
1768794462468.1091,1395.6043956043954,,0,-1,1768794462.4681091
1768794462475.9216,1401.4652014652013,,0,-1,1768794462.4759216
1768794462483.734,1405.8608058608058,,0,-1,1768794462.483734
1768794462491.5466,1408.7912087912086,,0,-1,1768794462.4915466
1768794462499.3591,1408.058608058608,,0,-1,1768794462.4993591
1768794462507.1716,1404.3956043956043,,0,-1,1768794462.5071716
1768794462514.984,1395.6043956043954,,0,-1,1768794462.514984
1768794462522.7966,1387.5457875457876,,0,-1,1768794462.5227966
1768794462530.6091,1385.3479853479853,,0,-1,1768794462.5306091
1768794462538.4216,1375.091575091575,,0,-1,1768794462.5384216
1768794462546.234,1367.032967032967,,0,-1,1768794462.546234
1768794462554.0466,1360.4395604395604,,0,-1,1768794462.5540466
1768794462561.8591,1356.7765567765566,,0,-1,1768794462.5618591
1768794462569.6716,1353.8461538461538,,0,-1,1768794462.5696716
1768794462577.484,1350.9157509157508,,0,-1,1768794462.577484
1768794462585.2966,1350.9157509157508,,0,-1,1768794462.5852966
1768794462593.1091,1352.3809523809523,,0,-1,1768794462.5931091
1768794462600.9216,1352.3809523809523,,0,-1,1768794462.6009216
1768794462608.734,1356.043956043956,,0,-1,1768794462.608734
1768794462616.5466,1363.3699633699632,,0,-1,1768794462.6165466
1768794462624.3591,1369.230769230769,,0,-1,1768794462.6243591
1768794462632.1716,1373.6263736263736,,0,-1,1768794462.6321716
1768794462639.984,1378.021978021978,,0,-1,1768794462.639984
1768794462647.7966,1377.2893772893772,,0,-1,1768794462.6477966
1768794462655.6091,1369.9633699633698,,0,-1,1768794462.6556091
1768794462663.4216,1358.974358974359,,0,-1,1768794462.6634216
1768794462671.234,1350.9157509157508,,0,-1,1768794462.671234
1768794462679.0466,1347.985347985348,,0,-1,1768794462.6790466
1768794462686.8591,1347.985347985348,,0,-1,1768794462.6868591
1768794462694.6716,1346.5201465201465,,0,-1,1768794462.6946716
1768794462702.484,1342.857142857143,,0,-1,1768794462.702484
1768794462710.2966,1340.6593406593406,,0,-1,1768794462.7102966
1768794462718.1091,1335.5311355311355,,0,-1,1768794462.7181091
1768794462725.9216,1334.065934065934,,0,-1,1768794462.7259216
1768794462733.734,1333.3333333333333,,0,-1,1768794462.733734
1768794462741.5466,1334.065934065934,,0,-1,1768794462.7415466
1768794462749.3591,1332.6007326007325,,0,-1,1768794462.7493591
1768794462757.1716,1331.135531135531,,0,-1,1768794462.7571716
1768794462764.984,1331.135531135531,,0,-1,1768794462.764984
1768794462772.7966,1331.8681318681315,,0,-1,1768794462.7727966
1768794462780.6091,1332.6007326007325,,0,-1,1768794462.7806091
1768794462788.4216,1332.6007326007325,,0,-1,1768794462.7884216
1768794462796.234,1329.6703296703297,,0,-1,1768794462.796234
1768794462804.0466,1322.3443223443223,,0,-1,1768794462.8040466
1768794462811.8591,1313.5531135531137,,0,-1,1768794462.8118591
1768794462819.6716,1309.89010989011,,0,-1,1768794462.8196716
1768794462827.484,1312.8205128205127,,0,-1,1768794462.827484
1768794462835.2966,1317.216117216117,,0,-1,1768794462.8352966
1768794462843.1091,1321.6117216117216,,0,-1,1768794462.8431091
1768794462850.9216,1328.2051282051282,,0,-1,1768794462.8509216
1768794462858.734,1331.135531135531,,0,-1,1768794462.858734
1768794462866.5466,1326.739926739927,,0,-1,1768794462.8665466
1768794462874.3591,1322.3443223443223,,0,-1,1768794462.8743591
1768794462882.1716,1321.6117216117216,,0,-1,1768794462.8821716
1768794462889.984,1318.6813186813183,,0,-1,1768794462.889984
1768794462897.7966,1315.7509157509155,,0,-1,1768794462.8977966
1768794462905.6091,1312.8205128205127,,0,-1,1768794462.9056091
1768794462913.4216,1310.6227106227104,,0,-1,1768794462.9134216
1768794462921.234,1311.3553113553112,,0,-1,1768794462.921234
1768794462929.0466,1312.087912087912,,0,-1,1768794462.9290466
1768794462936.8591,1309.89010989011,,0,-1,1768794462.9368591
1768794462944.6716,1313.5531135531137,,0,-1,1768794462.9446716
1768794462952.484,1316.4835164835165,,0,-1,1768794462.952484
1768794462960.2966,1316.4835164835165,,0,-1,1768794462.9602966
1768794462968.1091,1315.7509157509155,,0,-1,1768794462.9681091
1768794462975.9216,1317.216117216117,,0,-1,1768794462.9759216
1768794462983.734,1321.6117216117216,,0,-1,1768794462.983734
1768794462991.5466,1326.007326007326,,0,-1,1768794462.9915466
1768794462999.3591,1330.4029304029302,,0,-1,1768794462.9993591
1768794463007.1716,1339.194139194139,,0,-1,1768794463.0071716
1768794463014.984,1347.985347985348,,0,-1,1768794463.014984
1768794463022.7966,1355.311355311355,,0,-1,1768794463.0227966
1768794463030.6091,1361.1721611721612,,0,-1,1768794463.0306091
1768794463038.4216,1367.7655677655678,,0,-1,1768794463.0384216
1768794463046.234,1374.3589743589744,,0,-1,1768794463.046234
1768794463054.0466,1379.4871794871794,,0,-1,1768794463.0540466
1768794463061.8591,1384.6153846153843,,0,-1,1768794463.0618591
1768794463069.6716,1392.6739926739926,,0,-1,1768794463.0696716
1768794463077.484,1397.8021978021975,,0,-1,1768794463.077484
1768794463085.2966,1399.2673992673992,,0,-1,1768794463.0852966
1768794463093.1091,1404.3956043956043,,0,-1,1768794463.0931091
1768794463100.9216,1409.5238095238094,,0,-1,1768794463.1009216
1768794463108.734,1412.4542124542124,,0,-1,1768794463.108734
1768794463116.5466,1412.4542124542124,,0,-1,1768794463.1165466
1768794463124.3591,1413.9194139194135,,0,-1,1768794463.1243591
1768794463132.1716,1409.5238095238094,,0,-1,1768794463.1321716
1768794463139.984,1408.058608058608,,0,-1,1768794463.139984
1768794463147.7966,1410.989010989011,,0,-1,1768794463.1477966
1768794463155.6091,1410.989010989011,,0,-1,1768794463.1556091
1768794463163.4216,1415.3846153846152,,0,-1,1768794463.1634216
1768794463171.234,1415.3846153846152,,0,-1,1768794463.171234
1768794463179.0466,1414.6520146520145,,0,-1,1768794463.1790466
1768794463186.8591,1414.6520146520145,,0,-1,1768794463.1868591
1768794463194.6716,1410.2564102564102,,0,-1,1768794463.1946716
1768794463202.484,1404.3956043956043,,0,-1,1768794463.202484
1768794463210.2966,1401.4652014652013,,0,-1,1768794463.2102966
1768794463218.1091,1399.2673992673992,,0,-1,1768794463.2181091
1768794463225.9216,1393.4065934065934,,0,-1,1768794463.2259216
1768794463233.734,1382.4175824175825,,0,-1,1768794463.233734
1768794463241.5466,1376.5567765567764,,0,-1,1768794463.2415466
1768794463249.3591,1376.5567765567764,,0,-1,1768794463.2493591
1768794463257.1716,1377.2893772893772,,0,-1,1768794463.2571716
1768794463264.984,1378.021978021978,,0,-1,1768794463.264984
1768794463272.7966,1382.4175824175825,,0,-1,1768794463.2727966
1768794463280.6091,1385.3479853479853,,0,-1,1768794463.2806091
1768794463288.4216,1388.278388278388,,0,-1,1768794463.2884216
1768794463296.234,1396.3369963369962,,0,-1,1768794463.296234
1768794463304.0466,1404.3956043956043,,0,-1,1768794463.3040466
1768794463311.8591,1410.2564102564102,,0,-1,1768794463.3118591
1768794463319.6716,1412.4542124542124,,0,-1,1768794463.3196716
1768794463327.484,1416.117216117216,,0,-1,1768794463.327484
1768794463335.2966,1418.3150183150185,,0,-1,1768794463.3352966
1768794463343.1091,1417.5824175824175,,0,-1,1768794463.3431091
1768794463350.9216,1412.4542124542124,,0,-1,1768794463.3509216
1768794463358.734,1407.3260073260071,,0,-1,1768794463.358734
1768794463366.5466,1402.9304029304028,,0,-1,1768794463.3665466
1768794463374.3591,1397.069597069597,,0,-1,1768794463.3743591
1768794463382.1716,1389.7435897435896,,0,-1,1768794463.3821716
1768794463389.984,1384.6153846153843,,0,-1,1768794463.389984
1768794463397.7966,1380.952380952381,,0,-1,1768794463.3977966
1768794463405.6091,1377.2893772893772,,0,-1,1768794463.4056091
1768794463413.4216,1372.161172161172,,0,-1,1768794463.4134216
1768794463421.234,1367.032967032967,,0,-1,1768794463.421234
1768794463429.0466,1366.3003663003662,,0,-1,1768794463.4290466
1768794463436.8591,1369.9633699633698,,0,-1,1768794463.4368591
1768794463444.6716,1372.8937728937728,,0,-1,1768794463.4446716
1768794463452.484,1377.2893772893772,,0,-1,1768794463.452484
1768794463460.2966,1385.3479853479853,,0,-1,1768794463.4602966
1768794463468.1091,1389.7435897435896,,0,-1,1768794463.4681091
1768794463475.9216,1387.5457875457876,,0,-1,1768794463.4759216
1768794463483.734,1383.8827838827838,,0,-1,1768794463.483734
1768794463491.5466,1380.2197802197802,,0,-1,1768794463.4915466
1768794463499.3591,1378.021978021978,,0,-1,1768794463.4993591
1768794463507.1716,1375.091575091575,,0,-1,1768794463.5071716
1768794463514.984,1378.7545787545787,,0,-1,1768794463.514984
1768794463522.7966,1382.4175824175825,,0,-1,1768794463.5227966
1768794463530.6091,1380.952380952381,,0,-1,1768794463.5306091
1768794463538.4216,1381.6849816849815,,0,-1,1768794463.5384216
1768794463546.234,1384.6153846153843,,0,-1,1768794463.546234
1768794463554.0466,1383.8827838827838,,0,-1,1768794463.5540466
1768794463561.8591,1381.6849816849815,,0,-1,1768794463.5618591
1768794463569.6716,1383.8827838827838,,0,-1,1768794463.5696716
1768794463577.484,1388.278388278388,,0,-1,1768794463.577484
1768794463585.2966,1387.5457875457876,,0,-1,1768794463.5852966
1768794463593.1091,1386.080586080586,,0,-1,1768794463.5931091
1768794463600.9216,1387.5457875457876,,0,-1,1768794463.6009216
1768794463608.734,1387.5457875457876,,0,-1,1768794463.608734
1768794463616.5466,1385.3479853479853,,0,-1,1768794463.6165466
1768794463624.3591,1380.952380952381,,0,-1,1768794463.6243591
1768794463632.1716,1374.3589743589744,,0,-1,1768794463.6321716
1768794463639.984,1361.904761904762,,0,-1,1768794463.639984
1768794463647.7966,1353.113553113553,,0,-1,1768794463.6477966
1768794463655.6091,1347.2527472527472,,0,-1,1768794463.6556091
1768794463663.4216,1337.7289377289376,,0,-1,1768794463.6634216
1768794463671.234,1336.9963369963368,,0,-1,1768794463.671234
1768794463679.0466,1335.5311355311355,,0,-1,1768794463.6790466
1768794463686.8591,1341.3919413919414,,0,-1,1768794463.6868591
1768794463694.6716,1341.3919413919414,,0,-1,1768794463.6946716
1768794463702.484,1345.7875457875457,,0,-1,1768794463.702484
1768794463710.2966,1342.124542124542,,0,-1,1768794463.7102966
1768794463718.1091,1344.3223443223442,,0,-1,1768794463.7181091
1768794463725.9216,1340.6593406593406,,0,-1,1768794463.7259216
1768794463733.734,1341.3919413919414,,0,-1,1768794463.733734
1768794463741.5466,1336.9963369963368,,0,-1,1768794463.7415466
1768794463749.3591,1339.92673992674,,0,-1,1768794463.7493591
1768794463757.1716,1338.4615384615383,,0,-1,1768794463.7571716
1768794463764.984,1334.7985347985348,,0,-1,1768794463.764984
1768794463772.7966,1327.4725274725274,,0,-1,1768794463.7727966
1768794463780.6091,1322.3443223443223,,0,-1,1768794463.7806091
1768794463788.4216,1322.3443223443223,,0,-1,1768794463.7884216
1768794463796.234,1320.14652014652,,0,-1,1768794463.796234
1768794463804.0466,1315.018315018315,,0,-1,1768794463.8040466
1768794463811.8591,1316.4835164835165,,0,-1,1768794463.8118591
1768794463819.6716,1317.216117216117,,0,-1,1768794463.8196716
1768794463827.484,1319.4139194139193,,0,-1,1768794463.827484
1768794463835.2966,1324.5421245421244,,0,-1,1768794463.8352966
1768794463843.1091,1329.6703296703297,,0,-1,1768794463.8431091
1768794463850.9216,1331.8681318681315,,0,-1,1768794463.8509216
1768794463858.734,1334.065934065934,,0,-1,1768794463.858734
1768794463866.5466,1334.7985347985348,,0,-1,1768794463.8665466
1768794463874.3591,1339.194139194139,,0,-1,1768794463.8743591
1768794463882.1716,1342.857142857143,,0,-1,1768794463.8821716
1768794463889.984,1345.7875457875457,,0,-1,1768794463.889984
1768794463897.7966,1347.985347985348,,0,-1,1768794463.8977966
1768794463905.6091,1347.985347985348,,0,-1,1768794463.9056091
