Shimmer_6815_Timestamp_Unix_CAL,Shimmer_6815_PPG_A13_CAL,Unnamed: 2,inhale,inhale_id,epoch_sec
1768943712879.1504,80.58608058608058,,0,-1,1768943712.8791504
1768943712886.963,182.4175824175824,,0,-1,1768943712.886963
1768943712894.7754,289.37728937728934,,0,-1,1768943712.8947754
1768943712902.588,400.0,,0,-1,1768943712.902588
1768943712910.4004,502.56410256410254,,0,-1,1768943712.9104004
1768943712918.213,596.3369963369963,,0,-1,1768943712.918213
1768943712926.0254,677.6556776556777,,0,-1,1768943712.9260254
1768943712933.838,749.4505494505494,,0,-1,1768943712.933838
1768943712941.6504,808.7912087912088,,0,-1,1768943712.9416504
1768943712949.463,852.0146520146519,,0,-1,1768943712.949463
1768943712957.2754,892.3076923076923,,0,-1,1768943712.9572754
1768943712965.088,927.4725274725274,,0,-1,1768943712.965088
1768943712972.9004,964.102564102564,,0,-1,1768943712.9729004
1768943712980.713,996.3369963369964,,0,-1,1768943712.980713
1768943712988.5254,1022.7106227106226,,0,-1,1768943712.9885254
1768943712996.338,1047.6190476190477,,0,-1,1768943712.996338
1768943713004.1504,1073.260073260073,,0,-1,1768943713.0041504
1768943713011.963,1099.6336996336995,,0,-1,1768943713.011963
1768943713019.7754,1127.4725274725274,,0,-1,1768943713.0197754
1768943713027.588,1150.18315018315,,0,-1,1768943713.027588
1768943713035.4004,1173.6263736263736,,0,-1,1768943713.0354004
1768943713043.213,1194.1391941391942,,0,-1,1768943713.043213
1768943713051.0254,1210.989010989011,,0,-1,1768943713.0510254
1768943713058.838,1221.9780219780218,,0,-1,1768943713.058838
1768943713066.6504,1226.3736263736264,,0,-1,1768943713.0666504
1768943713074.463,1232.967032967033,,0,-1,1768943713.074463
1768943713082.2754,1228.5714285714284,,0,-1,1768943713.0822754
1768943713090.088,1220.5128205128203,,0,-1,1768943713.090088
1768943713097.9004,1205.128205128205,,0,-1,1768943713.0979004
1768943713105.713,1191.2087912087911,,0,-1,1768943713.105713
1768943713113.5254,1178.7545787545787,,0,-1,1768943713.1135254
1768943713121.338,1170.6959706959706,,0,-1,1768943713.121338
1768943713129.1504,1164.8351648351647,,0,-1,1768943713.1291504
1768943713136.963,1161.1721611721612,,0,-1,1768943713.136963
1768943713144.7754,1161.1721611721612,,0,-1,1768943713.1447754
1768943713152.588,1163.3699633699632,,0,-1,1768943713.152588
1768943713160.4004,1169.9633699633698,,0,-1,1768943713.1604004
1768943713168.213,1177.2893772893772,,0,-1,1768943713.168213
1768943713176.0254,1191.2087912087911,,0,-1,1768943713.1760254
1768943713183.838,1203.6630036630036,,0,-1,1768943713.183838
1768943713191.6504,1209.5238095238094,,0,-1,1768943713.1916504
1768943713199.463,1217.5824175824175,,0,-1,1768943713.199463
1768943713207.2754,1227.106227106227,,0,-1,1768943713.2072754
1768943713215.088,1232.967032967033,,0,-1,1768943713.215088
1768943713222.9004,1243.956043956044,,0,-1,1768943713.2229004
1768943713230.713,1253.479853479853,,0,-1,1768943713.230713
1768943713238.5254,1262.2710622710622,,0,-1,1768943713.2385254
1768943713246.338,1271.7948717948716,,0,-1,1768943713.246338
1768943713254.1504,1271.7948717948716,,0,-1,1768943713.2541504
1768943713261.963,1268.131868131868,,0,-1,1768943713.261963
1768943713269.7754,1261.5384615384614,,0,-1,1768943713.2697754
1768943713277.588,1251.2820512820513,,0,-1,1768943713.277588
1768943713285.4004,1243.2234432234432,,0,-1,1768943713.2854004
1768943713293.213,1232.967032967033,,0,-1,1768943713.293213
1768943713301.0254,1224.175824175824,,0,-1,1768943713.3010254
1768943713308.838,1209.5238095238094,,0,-1,1768943713.308838
1768943713316.6504,1202.197802197802,,0,-1,1768943713.3166504
1768943713324.463,1194.8717948717947,,0,-1,1768943713.324463
1768943713332.2754,1197.8021978021975,,0,-1,1768943713.3322754
1768943713340.088,1201.4652014652013,,0,-1,1768943713.340088
1768943713347.9004,1208.7912087912086,,0,-1,1768943713.3479004
1768943713355.713,1208.058608058608,,0,-1,1768943713.355713
1768943713363.5254,1206.5934065934066,,0,-1,1768943713.3635254
1768943713371.338,1205.128205128205,,0,-1,1768943713.371338
1768943713379.1504,1200.7326007326008,,0,-1,1768943713.3791504
1768943713386.963,1195.6043956043954,,0,-1,1768943713.386963
1768943713394.7754,1195.6043956043954,,0,-1,1768943713.3947754
1768943713402.588,1195.6043956043954,,0,-1,1768943713.402588
1768943713410.4004,1197.8021978021975,,0,-1,1768943713.4104004
1768943713418.213,1199.2673992673992,,0,-1,1768943713.418213
1768943713426.0254,1202.197802197802,,0,-1,1768943713.4260254
1768943713433.838,1204.3956043956043,,0,-1,1768943713.433838
1768943713441.6504,1204.3956043956043,,0,-1,1768943713.4416504
1768943713449.463,1209.5238095238094,,0,-1,1768943713.449463
1768943713457.2754,1213.9194139194135,,0,-1,1768943713.4572754
1768943713465.088,1219.047619047619,,0,-1,1768943713.465088
1768943713472.9004,1226.3736263736264,,0,-1,1768943713.4729004
1768943713480.713,1238.095238095238,,0,-1,1768943713.480713
1768943713488.5254,1259.3406593406592,,0,-1,1768943713.4885254
1768943713496.338,1280.5860805860805,,0,-1,1768943713.496338
1768943713504.1504,1301.098901098901,,0,-1,1768943713.5041504
1768943713511.963,1317.9487179487178,,0,-1,1768943713.511963
1768943713519.7754,1328.2051282051282,,0,-1,1768943713.5197754
1768943713527.588,1330.4029304029302,,0,-1,1768943713.527588
1768943713535.4004,1328.937728937729,,0,-1,1768943713.5354004
1768943713543.213,1317.216117216117,,0,-1,1768943713.543213
1768943713551.0254,1305.4945054945051,,0,-1,1768943713.5510254
1768943713558.838,1289.3772893772891,,0,-1,1768943713.558838
1768943713566.6504,1275.4578754578754,,0,-1,1768943713.5666504
1768943713574.463,1263.7362637362637,,0,-1,1768943713.574463
1768943713582.2754,1257.142857142857,,0,-1,1768943713.5822754
1768943713590.088,1252.014652014652,,0,-1,1768943713.590088
1768943713597.9004,1248.3516483516482,,0,-1,1768943713.5979004
1768943713605.713,1252.7472527472526,,0,-1,1768943713.605713
1768943713613.5254,1257.875457875458,,0,-1,1768943713.6135254
1768943713621.338,1266.6666666666663,,0,-1,1768943713.621338
1768943713629.1504,1273.992673992674,,0,-1,1768943713.6291504
1768943713636.963,1282.051282051282,,0,-1,1768943713.636963
1768943713644.7754,1295.970695970696,,0,-1,1768943713.6447754
1768943713652.588,1308.4249084249084,,0,-1,1768943713.652588
1768943713660.4004,1322.3443223443223,,0,-1,1768943713.6604004
1768943713668.213,1335.5311355311355,,0,-1,1768943713.668213
1768943713676.0254,1346.5201465201465,,0,-1,1768943713.6760254
1768943713683.838,1356.7765567765566,,0,-1,1768943713.683838
1768943713691.6504,1364.102564102564,,0,-1,1768943713.6916504
1768943713699.463,1367.032967032967,,0,-1,1768943713.699463
1768943713707.2754,1363.3699633699632,,0,-1,1768943713.7072754
1768943713715.088,1359.7069597069597,,0,-1,1768943713.715088
1768943713722.9004,1356.043956043956,,0,-1,1768943713.7229004
1768943713730.713,1356.7765567765566,,0,-1,1768943713.730713
1768943713738.5254,1358.974358974359,,0,-1,1768943713.7385254
1768943713746.338,1361.904761904762,,0,-1,1768943713.746338
1768943713754.1504,1367.032967032967,,0,-1,1768943713.7541504
1768943713761.963,1375.8241758241757,,0,-1,1768943713.761963
1768943713769.7754,1381.6849816849815,,0,-1,1768943713.7697754
1768943713777.588,1385.3479853479853,,0,-1,1768943713.777588
1768943713785.4004,1378.7545787545787,,0,-1,1768943713.7854004
1768943713793.213,1370.6959706959706,,0,-1,1768943713.793213
1768943713801.0254,1356.043956043956,,0,-1,1768943713.8010254
1768943713808.838,1336.263736263736,,0,-1,1768943713.808838
1768943713816.6504,1318.6813186813183,,0,-1,1768943713.8166504
1768943713824.463,1305.4945054945051,,0,-1,1768943713.824463
1768943713832.2754,1297.4358974358977,,0,-1,1768943713.8322754
1768943713840.088,1291.5750915750914,,0,-1,1768943713.840088
1768943713847.9004,1294.5054945054944,,0,-1,1768943713.8479004
1768943713855.713,1296.7032967032967,,0,-1,1768943713.855713
1768943713863.5254,1306.9597069597069,,0,-1,1768943713.8635254
1768943713871.338,1315.018315018315,,0,-1,1768943713.871338
1768943713879.1504,1322.3443223443223,,0,-1,1768943713.8791504
1768943713886.963,1330.4029304029302,,0,-1,1768943713.886963
1768943713894.7754,1338.4615384615383,,0,-1,1768943713.8947754
1768943713902.588,1343.5897435897434,,0,-1,1768943713.902588
1768943713910.4004,1345.7875457875457,,0,-1,1768943713.9104004
1768943713918.213,1345.054945054945,,0,-1,1768943713.918213
1768943713926.0254,1339.194139194139,,0,-1,1768943713.9260254
1768943713933.838,1331.8681318681315,,0,-1,1768943713.933838
1768943713941.6504,1326.739926739927,,0,-1,1768943713.9416504
1768943713949.463,1321.6117216117216,,0,-1,1768943713.949463
1768943713957.2754,1317.9487179487178,,0,-1,1768943713.9572754
1768943713965.088,1316.4835164835165,,0,-1,1768943713.965088
1768943713972.9004,1318.6813186813183,,0,-1,1768943713.9729004
1768943713980.713,1317.216117216117,,0,-1,1768943713.980713
1768943713988.5254,1317.9487179487178,,0,-1,1768943713.9885254
1768943713996.338,1315.7509157509155,,0,-1,1768943713.996338
1768943714004.1504,1313.5531135531137,,0,-1,1768943714.0041504
1768943714011.963,1309.1575091575091,,0,-1,1768943714.011963
1768943714019.7754,1306.227106227106,,0,-1,1768943714.0197754
1768943714027.588,1298.9010989010987,,0,-1,1768943714.027588
1768943714035.4004,1293.7728937728937,,0,-1,1768943714.0354004
1768943714043.213,1290.8424908424909,,0,-1,1768943714.043213
1768943714051.0254,1290.8424908424909,,0,-1,1768943714.0510254
1768943714058.838,1291.5750915750914,,0,-1,1768943714.058838
1768943714066.6504,1295.2380952380952,,0,-1,1768943714.0666504
1768943714074.463,1294.5054945054944,,0,-1,1768943714.074463
1768943714082.2754,1293.7728937728937,,0,-1,1768943714.0822754
1768943714090.088,1289.3772893772891,,0,-1,1768943714.090088
1768943714097.9004,1281.3186813186812,,0,-1,1768943714.0979004
1768943714105.713,1274.7252747252746,,0,-1,1768943714.105713
1768943714113.5254,1267.3992673992673,,0,-1,1768943714.1135254
1768943714121.338,1262.2710622710622,,0,-1,1768943714.121338
1768943714129.1504,1257.875457875458,,0,-1,1768943714.1291504
1768943714136.963,1257.142857142857,,0,-1,1768943714.136963
1768943714144.7754,1256.4102564102564,,0,-1,1768943714.1447754
1768943714152.588,1259.3406593406592,,0,-1,1768943714.152588
1768943714160.4004,1266.6666666666663,,0,-1,1768943714.1604004
1768943714168.213,1276.190476190476,,0,-1,1768943714.168213
1768943714176.0254,1285.7142857142856,,0,-1,1768943714.1760254
1768943714183.838,1293.040293040293,,0,-1,1768943714.183838
1768943714191.6504,1301.8315018315018,,0,-1,1768943714.1916504
1768943714199.463,1306.227106227106,,0,-1,1768943714.199463
1768943714207.2754,1306.9597069597069,,0,-1,1768943714.2072754
1768943714215.088,1302.5641025641023,,0,-1,1768943714.215088
1768943714222.9004,1296.7032967032967,,0,-1,1768943714.2229004
1768943714230.713,1290.8424908424909,,0,-1,1768943714.230713
1768943714238.5254,1286.4468864468863,,0,-1,1768943714.2385254
1768943714246.338,1282.7838827838827,,0,-1,1768943714.246338
1768943714254.1504,1277.6556776556777,,0,-1,1768943714.2541504
1768943714261.963,1271.7948717948716,,0,-1,1768943714.261963
1768943714269.7754,1271.062271062271,,0,-1,1768943714.2697754
1768943714277.588,1271.062271062271,,0,-1,1768943714.277588
1768943714285.4004,1271.7948717948716,,0,-1,1768943714.2854004
1768943714293.213,1276.923076923077,,0,-1,1768943714.293213
1768943714301.0254,1279.8534798534797,,0,-1,1768943714.3010254
1768943714308.838,1282.7838827838827,,0,-1,1768943714.308838
1768943714316.6504,1285.7142857142856,,0,-1,1768943714.3166504
1768943714324.463,1288.6446886446886,,0,-1,1768943714.324463
1768943714332.2754,1288.6446886446886,,0,-1,1768943714.3322754
1768943714340.088,1290.8424908424909,,0,-1,1768943714.340088
1768943714347.9004,1290.10989010989,,0,-1,1768943714.3479004
1768943714355.713,1286.4468864468863,,0,-1,1768943714.355713
1768943714363.5254,1284.2490842490845,,0,-1,1768943714.3635254
1768943714371.338,1280.5860805860805,,0,-1,1768943714.371338
1768943714379.1504,1274.7252747252746,,0,-1,1768943714.3791504
1768943714386.963,1265.2014652014652,,0,-1,1768943714.386963
1768943714394.7754,1255.6776556776556,,0,-1,1768943714.3947754
1768943714402.588,1246.153846153846,,0,-1,1768943714.402588
1768943714410.4004,1236.6300366300366,,0,-1,1768943714.4104004
1768943714418.213,1224.175824175824,,0,-1,1768943714.418213
1768943714426.0254,1210.989010989011,,0,-1,1768943714.4260254
1768943714433.838,1190.4761904761904,,0,-1,1768943714.433838
1768943714441.6504,1174.3589743589744,,0,-1,1768943714.4416504
1768943714449.463,1161.1721611721612,,0,-1,1768943714.449463
1768943714457.2754,1153.8461538461538,,0,-1,1768943714.4572754
1768943714465.088,1148.7179487179487,,0,-1,1768943714.465088
1768943714472.9004,1144.3223443223442,,0,-1,1768943714.4729004
1768943714480.713,1134.065934065934,,0,-1,1768943714.480713
1768943714488.5254,1130.4029304029302,,0,-1,1768943714.4885254
1768943714496.338,1130.4029304029302,,0,-1,1768943714.496338
1768943714504.1504,1134.065934065934,,0,-1,1768943714.5041504
1768943714511.963,1140.6593406593406,,0,-1,1768943714.511963
1768943714519.7754,1147.2527472527472,,0,-1,1768943714.5197754
1768943714527.588,1150.9157509157508,,0,-1,1768943714.527588
1768943714535.4004,1150.9157509157508,,0,-1,1768943714.5354004
1768943714543.213,1156.043956043956,,0,-1,1768943714.543213
1768943714551.0254,1163.3699633699632,,0,-1,1768943714.5510254
1768943714558.838,1166.3003663003662,,0,-1,1768943714.558838
1768943714566.6504,1171.428571428571,,0,-1,1768943714.5666504
1768943714574.463,1175.8241758241757,,0,-1,1768943714.574463
1768943714582.2754,1183.150183150183,,0,-1,1768943714.5822754
1768943714590.088,1194.1391941391942,,0,-1,1768943714.590088
1768943714597.9004,1202.9304029304028,,0,-1,1768943714.5979004
1768943714605.713,1215.3846153846152,,0,-1,1768943714.605713
1768943714613.5254,1226.3736263736264,,0,-1,1768943714.6135254
1768943714621.338,1234.4322344322345,,0,-1,1768943714.621338
1768943714629.1504,1249.084249084249,,0,-1,1768943714.6291504
1768943714636.963,1263.003663003663,,0,-1,1768943714.636963
1768943714644.7754,1276.190476190476,,0,-1,1768943714.6447754
1768943714652.588,1291.5750915750914,,0,-1,1768943714.652588
1768943714660.4004,1307.6923076923076,,0,-1,1768943714.6604004
1768943714668.213,1320.14652014652,,0,-1,1768943714.668213
1768943714676.0254,1329.6703296703297,,0,-1,1768943714.6760254
1768943714683.838,1340.6593406593406,,0,-1,1768943714.683838
1768943714691.6504,1353.113553113553,,0,-1,1768943714.6916504
1768943714699.463,1359.7069597069597,,0,-1,1768943714.699463
1768943714707.2754,1366.3003663003662,,0,-1,1768943714.7072754
1768943714715.088,1371.428571428571,,0,-1,1768943714.715088
1768943714722.9004,1375.091575091575,,0,-1,1768943714.7229004
1768943714730.713,1372.8937728937728,,0,-1,1768943714.730713
1768943714738.5254,1372.161172161172,,0,-1,1768943714.7385254
1768943714746.338,1367.032967032967,,0,-1,1768943714.746338
1768943714754.1504,1369.230769230769,,0,-1,1768943714.7541504
1768943714761.963,1374.3589743589744,,0,-1,1768943714.761963
1768943714769.7754,1381.6849816849815,,0,-1,1768943714.7697754
1768943714777.588,1385.3479853479853,,0,-1,1768943714.777588
1768943714785.4004,1387.5457875457876,,0,-1,1768943714.7854004
1768943714793.213,1389.0109890109889,,0,-1,1768943714.793213
1768943714801.0254,1394.139194139194,,0,-1,1768943714.8010254
1768943714808.838,1397.8021978021975,,0,-1,1768943714.808838
1768943714816.6504,1400.7326007326003,,0,-1,1768943714.8166504
1768943714824.463,1402.197802197802,,0,-1,1768943714.824463
1768943714832.2754,1408.7912087912086,,0,-1,1768943714.8322754
1768943714840.088,1410.2564102564102,,0,-1,1768943714.840088
1768943714847.9004,1416.117216117216,,0,-1,1768943714.8479004
1768943714855.713,1417.5824175824175,,0,-1,1768943714.855713
1768943714863.5254,1419.047619047619,,0,-1,1768943714.8635254
1768943714871.338,1420.5128205128203,,0,-1,1768943714.871338
1768943714879.1504,1418.3150183150185,,0,-1,1768943714.8791504
1768943714886.963,1414.6520146520145,,1,0,1768943714.886963
1768943714894.7754,1415.3846153846152,,1,0,1768943714.8947754
1768943714902.588,1413.1868131868132,,1,0,1768943714.902588
1768943714910.4004,1412.4542124542124,,1,0,1768943714.9104004
1768943714918.213,1410.2564102564102,,1,0,1768943714.918213
1768943714926.0254,1410.2564102564102,,1,0,1768943714.9260254
1768943714933.838,1408.7912087912086,,1,0,1768943714.933838
1768943714941.6504,1405.8608058608058,,1,0,1768943714.9416504
1768943714949.463,1398.5347985347985,,1,0,1768943714.949463
1768943714957.2754,1396.3369963369962,,1,0,1768943714.9572754
1768943714965.088,1390.4761904761904,,1,0,1768943714.965088
1768943714972.9004,1386.8131868131868,,1,0,1768943714.9729004
1768943714980.713,1385.3479853479853,,1,0,1768943714.980713
1768943714988.5254,1386.080586080586,,1,0,1768943714.9885254
1768943714996.338,1383.8827838827838,,1,0,1768943714.996338
1768943715004.1504,1382.4175824175825,,1,0,1768943715.0041504
1768943715011.963,1378.7545787545787,,1,0,1768943715.011963
1768943715019.7754,1374.3589743589744,,1,0,1768943715.0197754
1768943715027.588,1362.6373626373625,,1,0,1768943715.027588
1768943715035.4004,1349.4505494505493,,1,0,1768943715.0354004
1768943715043.213,1335.5311355311355,,1,0,1768943715.043213
1768943715051.0254,1323.076923076923,,1,0,1768943715.0510254
1768943715058.838,1309.89010989011,,1,0,1768943715.058838
1768943715066.6504,1299.6336996336995,,1,0,1768943715.0666504
1768943715074.463,1295.2380952380952,,1,0,1768943715.074463
1768943715082.2754,1298.9010989010987,,1,0,1768943715.0822754
1768943715090.088,1307.6923076923076,,1,0,1768943715.090088
1768943715097.9004,1315.018315018315,,1,0,1768943715.0979004
1768943715105.713,1323.076923076923,,1,0,1768943715.105713
1768943715113.5254,1324.5421245421244,,1,0,1768943715.1135254
1768943715121.338,1326.739926739927,,1,0,1768943715.121338
1768943715129.1504,1323.076923076923,,1,0,1768943715.1291504
1768943715136.963,1320.8791208791208,,1,0,1768943715.136963
1768943715144.7754,1317.216117216117,,1,0,1768943715.1447754
1768943715152.588,1316.4835164835165,,1,0,1768943715.152588
1768943715160.4004,1312.087912087912,,1,0,1768943715.1604004
1768943715168.213,1310.6227106227104,,1,0,1768943715.168213
1768943715176.0254,1306.9597069597069,,1,0,1768943715.1760254
1768943715183.838,1305.4945054945051,,1,0,1768943715.183838
1768943715191.6504,1306.227106227106,,1,0,1768943715.1916504
1768943715199.463,1312.8205128205127,,1,0,1768943715.199463
1768943715207.2754,1319.4139194139193,,1,0,1768943715.2072754
1768943715215.088,1328.2051282051282,,1,0,1768943715.215088
1768943715222.9004,1333.3333333333333,,1,0,1768943715.2229004
1768943715230.713,1337.7289377289376,,1,0,1768943715.230713
1768943715238.5254,1340.6593406593406,,1,0,1768943715.2385254
1768943715246.338,1339.92673992674,,1,0,1768943715.246338
1768943715254.1504,1335.5311355311355,,1,0,1768943715.2541504
1768943715261.963,1331.8681318681315,,1,0,1768943715.261963
1768943715269.7754,1326.007326007326,,1,0,1768943715.2697754
1768943715277.588,1320.8791208791208,,1,0,1768943715.277588
1768943715285.4004,1319.4139194139193,,1,0,1768943715.2854004
1768943715293.213,1317.9487179487178,,1,0,1768943715.293213
1768943715301.0254,1318.6813186813183,,1,0,1768943715.3010254
1768943715308.838,1317.9487179487178,,1,0,1768943715.308838
1768943715316.6504,1315.7509157509155,,1,0,1768943715.3166504
1768943715324.463,1314.2857142857142,,1,0,1768943715.324463
1768943715332.2754,1310.6227106227104,,1,0,1768943715.3322754
1768943715340.088,1304.0293040293038,,1,0,1768943715.340088
1768943715347.9004,1304.0293040293038,,1,0,1768943715.3479004
1768943715355.713,1304.0293040293038,,1,0,1768943715.355713
1768943715363.5254,1306.9597069597069,,1,0,1768943715.3635254
1768943715371.338,1309.1575091575091,,1,0,1768943715.371338
1768943715379.1504,1313.5531135531137,,1,0,1768943715.3791504
1768943715386.963,1314.2857142857142,,1,0,1768943715.386963
1768943715394.7754,1316.4835164835165,,1,0,1768943715.3947754
1768943715402.588,1320.8791208791208,,1,0,1768943715.402588
1768943715410.4004,1321.6117216117216,,1,0,1768943715.4104004
1768943715418.213,1326.007326007326,,1,0,1768943715.418213
1768943715426.0254,1325.2747252747251,,1,0,1768943715.4260254
1768943715433.838,1323.8095238095236,,1,0,1768943715.433838
1768943715441.6504,1320.14652014652,,1,0,1768943715.4416504
1768943715449.463,1315.018315018315,,1,0,1768943715.449463
1768943715457.2754,1313.5531135531137,,1,0,1768943715.4572754
1768943715465.088,1309.1575091575091,,1,0,1768943715.465088
1768943715472.9004,1302.5641025641023,,1,0,1768943715.4729004
1768943715480.713,1294.5054945054944,,1,0,1768943715.480713
1768943715488.5254,1286.4468864468863,,1,0,1768943715.4885254
1768943715496.338,1281.3186813186812,,1,0,1768943715.496338
1768943715504.1504,1280.5860805860805,,1,0,1768943715.5041504
1768943715511.963,1279.8534798534797,,1,0,1768943715.511963
1768943715519.7754,1282.051282051282,,1,0,1768943715.5197754
1768943715527.588,1284.9816849816848,,1,0,1768943715.527588
1768943715535.4004,1290.10989010989,,1,0,1768943715.5354004
1768943715543.213,1290.8424908424909,,1,0,1768943715.543213
1768943715551.0254,1295.970695970696,,1,0,1768943715.5510254
1768943715558.838,1298.168498168498,,1,0,1768943715.558838
1768943715566.6504,1295.970695970696,,1,0,1768943715.5666504
1768943715574.463,1290.10989010989,,1,0,1768943715.574463
1768943715582.2754,1284.2490842490845,,1,0,1768943715.5822754
1768943715590.088,1282.7838827838827,,1,0,1768943715.590088
1768943715597.9004,1284.9816849816848,,1,0,1768943715.5979004
1768943715605.713,1291.5750915750914,,1,0,1768943715.605713
1768943715613.5254,1301.8315018315018,,1,0,1768943715.6135254
1768943715621.338,1309.1575091575091,,1,0,1768943715.621338
1768943715629.1504,1318.6813186813183,,1,0,1768943715.6291504
1768943715636.963,1326.007326007326,,1,0,1768943715.636963
1768943715644.7754,1329.6703296703297,,1,0,1768943715.6447754
1768943715652.588,1330.4029304029302,,1,0,1768943715.652588
1768943715660.4004,1330.4029304029302,,1,0,1768943715.6604004
1768943715668.213,1328.2051282051282,,1,0,1768943715.668213
1768943715676.0254,1323.8095238095236,,1,0,1768943715.6760254
1768943715683.838,1321.6117216117216,,1,0,1768943715.683838
1768943715691.6504,1325.2747252747251,,1,0,1768943715.6916504
1768943715699.463,1328.2051282051282,,1,0,1768943715.699463
1768943715707.2754,1334.065934065934,,1,0,1768943715.7072754
1768943715715.088,1339.92673992674,,1,0,1768943715.715088
1768943715722.9004,1347.985347985348,,1,0,1768943715.7229004
1768943715730.713,1356.043956043956,,1,0,1768943715.730713
1768943715738.5254,1362.6373626373625,,1,0,1768943715.7385254
1768943715746.338,1369.230769230769,,1,0,1768943715.746338
1768943715754.1504,1376.5567765567764,,1,0,1768943715.7541504
1768943715761.963,1375.8241758241757,,1,0,1768943715.761963
1768943715769.7754,1378.7545787545787,,1,0,1768943715.7697754
1768943715777.588,1384.6153846153843,,1,0,1768943715.777588
1768943715785.4004,1391.2087912087911,,1,0,1768943715.7854004
1768943715793.213,1406.5934065934066,,1,0,1768943715.793213
1768943715801.0254,1413.1868131868132,,1,0,1768943715.8010254
1768943715808.838,1421.9780219780218,,1,0,1768943715.808838
1768943715816.6504,1427.106227106227,,1,0,1768943715.8166504
1768943715824.463,1435.164835164835,,1,0,1768943715.824463
1768943715832.2754,1439.5604395604394,,1,0,1768943715.8322754
1768943715840.088,1443.2234432234432,,1,0,1768943715.840088
1768943715847.9004,1438.8278388278388,,1,0,1768943715.8479004
1768943715855.713,1437.362637362637,,1,0,1768943715.855713
1768943715863.5254,1430.7692307692307,,1,0,1768943715.8635254
1768943715871.338,1427.8388278388277,,1,0,1768943715.871338
1768943715879.1504,1428.5714285714284,,1,0,1768943715.8791504
1768943715886.963,1425.6410256410256,,1,0,1768943715.886963
1768943715894.7754,1426.3736263736262,,1,0,1768943715.8947754
1768943715902.588,1424.175824175824,,1,0,1768943715.902588
1768943715910.4004,1423.4432234432234,,1,0,1768943715.9104004
1768943715918.213,1419.047619047619,,1,0,1768943715.918213
1768943715926.0254,1412.4542124542124,,1,0,1768943715.9260254
1768943715933.838,1410.2564102564102,,1,0,1768943715.933838
1768943715941.6504,1405.8608058608058,,1,0,1768943715.9416504
1768943715949.463,1402.197802197802,,1,0,1768943715.949463
1768943715957.2754,1398.5347985347985,,1,0,1768943715.9572754
1768943715965.088,1394.139194139194,,1,0,1768943715.965088
1768943715972.9004,1389.7435897435896,,1,0,1768943715.9729004
1768943715980.713,1384.6153846153843,,1,0,1768943715.980713
1768943715988.5254,1382.4175824175825,,1,0,1768943715.9885254
1768943715996.338,1386.080586080586,,1,0,1768943715.996338
1768943716004.1504,1385.3479853479853,,1,0,1768943716.0041504
1768943716011.963,1387.5457875457876,,1,0,1768943716.011963
1768943716019.7754,1386.080586080586,,1,0,1768943716.0197754
1768943716027.588,1387.5457875457876,,1,0,1768943716.027588
1768943716035.4004,1385.3479853479853,,1,0,1768943716.0354004
1768943716043.213,1383.8827838827838,,1,0,1768943716.043213
1768943716051.0254,1383.8827838827838,,1,0,1768943716.0510254
1768943716058.838,1380.952380952381,,1,0,1768943716.058838
1768943716066.6504,1376.5567765567764,,1,0,1768943716.0666504
1768943716074.463,1374.3589743589744,,1,0,1768943716.074463
1768943716082.2754,1368.4981684981683,,1,0,1768943716.0822754
1768943716090.088,1364.102564102564,,1,0,1768943716.090088
1768943716097.9004,1362.6373626373625,,1,0,1768943716.0979004
1768943716105.713,1358.241758241758,,1,0,1768943716.105713
1768943716113.5254,1358.974358974359,,1,0,1768943716.1135254
1768943716121.338,1358.974358974359,,1,0,1768943716.121338
1768943716129.1504,1355.311355311355,,1,0,1768943716.1291504
1768943716136.963,1353.8461538461538,,1,0,1768943716.136963
1768943716144.7754,1352.3809523809523,,1,0,1768943716.1447754
1768943716152.588,1350.9157509157508,,1,0,1768943716.152588
1768943716160.4004,1347.2527472527472,,1,0,1768943716.1604004
1768943716168.213,1347.985347985348,,1,0,1768943716.168213
1768943716176.0254,1349.4505494505493,,1,0,1768943716.1760254
1768943716183.838,1345.7875457875457,,1,0,1768943716.183838
1768943716191.6504,1347.2527472527472,,1,0,1768943716.1916504
1768943716199.463,1349.4505494505493,,1,0,1768943716.199463
1768943716207.2754,1352.3809523809523,,1,0,1768943716.2072754
1768943716215.088,1354.5787545787546,,1,0,1768943716.215088
1768943716222.9004,1357.5091575091574,,1,0,1768943716.2229004
1768943716230.713,1356.7765567765566,,1,0,1768943716.230713
1768943716238.5254,1357.5091575091574,,1,0,1768943716.2385254
1768943716246.338,1353.113553113553,,1,0,1768943716.246338
1768943716254.1504,1350.9157509157508,,1,0,1768943716.2541504
1768943716261.963,1347.985347985348,,1,0,1768943716.261963
1768943716269.7754,1349.4505494505493,,1,0,1768943716.2697754
1768943716277.588,1352.3809523809523,,1,0,1768943716.277588
1768943716285.4004,1357.5091575091574,,1,0,1768943716.2854004
1768943716293.213,1356.043956043956,,1,0,1768943716.293213
1768943716301.0254,1357.5091575091574,,1,0,1768943716.3010254
1768943716308.838,1361.1721611721612,,1,0,1768943716.308838
1768943716316.6504,1361.1721611721612,,1,0,1768943716.3166504
1768943716324.463,1356.7765567765566,,1,0,1768943716.324463
1768943716332.2754,1356.043956043956,,1,0,1768943716.3322754
1768943716340.088,1350.9157509157508,,1,0,1768943716.340088
1768943716347.9004,1345.7875457875457,,1,0,1768943716.3479004
1768943716355.713,1344.3223443223442,,1,0,1768943716.355713
1768943716363.5254,1339.194139194139,,1,0,1768943716.3635254
1768943716371.338,1331.8681318681315,,1,0,1768943716.371338
1768943716379.1504,1328.937728937729,,1,0,1768943716.3791504
1768943716386.963,1325.2747252747251,,1,0,1768943716.386963
1768943716394.7754,1322.3443223443223,,1,0,1768943716.3947754
1768943716402.588,1317.9487179487178,,1,0,1768943716.402588
1768943716410.4004,1311.3553113553112,,1,0,1768943716.4104004
1768943716418.213,1309.1575091575091,,1,0,1768943716.418213
1768943716426.0254,1310.6227106227104,,1,0,1768943716.4260254
1768943716433.838,1310.6227106227104,,1,0,1768943716.433838
1768943716441.6504,1308.4249084249084,,1,0,1768943716.4416504
1768943716449.463,1309.89010989011,,1,0,1768943716.449463
1768943716457.2754,1308.4249084249084,,1,0,1768943716.4572754
1768943716465.088,1306.9597069597069,,1,0,1768943716.465088
1768943716472.9004,1306.9597069597069,,1,0,1768943716.4729004
1768943716480.713,1305.4945054945051,,1,0,1768943716.480713
1768943716488.5254,1304.0293040293038,,1,0,1768943716.4885254
1768943716496.338,1299.6336996336995,,1,0,1768943716.496338
1768943716504.1504,1300.3663003663005,,1,0,1768943716.5041504
1768943716511.963,1301.098901098901,,1,0,1768943716.511963
1768943716519.7754,1304.7619047619046,,1,0,1768943716.5197754
1768943716527.588,1306.227106227106,,1,0,1768943716.527588
1768943716535.4004,1307.6923076923076,,1,0,1768943716.5354004
1768943716543.213,1307.6923076923076,,1,0,1768943716.543213
1768943716551.0254,1304.0293040293038,,1,0,1768943716.5510254
1768943716558.838,1301.098901098901,,1,0,1768943716.558838
1768943716566.6504,1298.168498168498,,1,0,1768943716.5666504
1768943716574.463,1295.970695970696,,1,0,1768943716.574463
1768943716582.2754,1295.970695970696,,1,0,1768943716.5822754
1768943716590.088,1293.7728937728937,,1,0,1768943716.590088
1768943716597.9004,1298.168498168498,,1,0,1768943716.5979004
1768943716605.713,1303.2967032967033,,1,0,1768943716.605713
1768943716613.5254,1312.8205128205127,,1,0,1768943716.6135254
1768943716621.338,1319.4139194139193,,1,0,1768943716.621338
1768943716629.1504,1325.2747252747251,,1,0,1768943716.6291504
1768943716636.963,1335.5311355311355,,1,0,1768943716.636963
1768943716644.7754,1345.054945054945,,1,0,1768943716.6447754
1768943716652.588,1356.043956043956,,1,0,1768943716.652588
1768943716660.4004,1369.9633699633698,,1,0,1768943716.6604004
1768943716668.213,1381.6849816849815,,1,0,1768943716.668213
1768943716676.0254,1394.139194139194,,1,0,1768943716.6760254
1768943716683.838,1401.4652014652013,,1,0,1768943716.683838
1768943716691.6504,1409.5238095238094,,1,0,1768943716.6916504
1768943716699.463,1413.1868131868132,,1,0,1768943716.699463
1768943716707.2754,1415.3846153846152,,1,0,1768943716.7072754
1768943716715.088,1417.5824175824175,,1,0,1768943716.715088
1768943716722.9004,1422.7106227106226,,1,0,1768943716.7229004
1768943716730.713,1428.5714285714284,,1,0,1768943716.730713
1768943716738.5254,1434.4322344322345,,1,0,1768943716.7385254
1768943716746.338,1439.5604395604394,,1,0,1768943716.746338
1768943716754.1504,1438.095238095238,,1,0,1768943716.7541504
1768943716761.963,1439.5604395604394,,1,0,1768943716.761963
1768943716769.7754,1438.8278388278388,,1,0,1768943716.7697754
1768943716777.588,1438.095238095238,,1,0,1768943716.777588
1768943716785.4004,1443.2234432234432,,1,0,1768943716.7854004
1768943716793.213,1444.688644688645,,1,0,1768943716.793213
1768943716801.0254,1444.688644688645,,1,0,1768943716.8010254
1768943716808.838,1445.4212454212454,,1,0,1768943716.808838
1768943716816.6504,1442.4908424908424,,1,0,1768943716.8166504
1768943716824.463,1443.956043956044,,1,0,1768943716.824463
1768943716832.2754,1442.4908424908424,,1,0,1768943716.8322754
1768943716840.088,1443.956043956044,,1,0,1768943716.840088
1768943716847.9004,1442.4908424908424,,1,0,1768943716.8479004
1768943716855.713,1439.5604395604394,,1,0,1768943716.855713
1768943716863.5254,1433.6996336996335,,1,0,1768943716.8635254
1768943716871.338,1425.6410256410256,,1,0,1768943716.871338
1768943716879.1504,1421.9780219780218,,1,0,1768943716.8791504
1768943716886.963,1418.3150183150185,,1,0,1768943716.886963
1768943716894.7754,1417.5824175824175,,1,0,1768943716.8947754
1768943716902.588,1420.5128205128203,,1,0,1768943716.902588
1768943716910.4004,1421.245421245421,,1,0,1768943716.9104004
1768943716918.213,1422.7106227106226,,1,0,1768943716.918213
1768943716926.0254,1421.245421245421,,1,0,1768943716.9260254
1768943716933.838,1419.047619047619,,0,-1,1768943716.933838
1768943716941.6504,1417.5824175824175,,0,-1,1768943716.9416504
1768943716949.463,1417.5824175824175,,0,-1,1768943716.949463
1768943716957.2754,1416.117216117216,,0,-1,1768943716.9572754
1768943716965.088,1416.8498168498168,,0,-1,1768943716.965088
1768943716972.9004,1409.5238095238094,,0,-1,1768943716.9729004
1768943716980.713,1401.4652014652013,,0,-1,1768943716.980713
1768943716988.5254,1391.941391941392,,0,-1,1768943716.9885254
1768943716996.338,1381.6849816849815,,0,-1,1768943716.996338
1768943717004.1504,1379.4871794871794,,0,-1,1768943717.0041504
1768943717011.963,1380.2197802197802,,0,-1,1768943717.011963
1768943717019.7754,1380.2197802197802,,0,-1,1768943717.0197754
1768943717027.588,1378.021978021978,,0,-1,1768943717.027588
1768943717035.4004,1380.2197802197802,,0,-1,1768943717.0354004
1768943717043.213,1381.6849816849815,,0,-1,1768943717.043213
1768943717051.0254,1382.4175824175825,,0,-1,1768943717.0510254
1768943717058.838,1378.7545787545787,,0,-1,1768943717.058838
1768943717066.6504,1370.6959706959706,,0,-1,1768943717.0666504
1768943717074.463,1356.7765567765566,,0,-1,1768943717.074463
1768943717082.2754,1345.7875457875457,,0,-1,1768943717.0822754
1768943717090.088,1336.9963369963368,,0,-1,1768943717.090088
1768943717097.9004,1328.2051282051282,,0,-1,1768943717.0979004
1768943717105.713,1320.8791208791208,,0,-1,1768943717.105713
1768943717113.5254,1315.7509157509155,,0,-1,1768943717.1135254
1768943717121.338,1312.8205128205127,,0,-1,1768943717.121338
1768943717129.1504,1314.2857142857142,,0,-1,1768943717.1291504
1768943717136.963,1317.216117216117,,0,-1,1768943717.136963
1768943717144.7754,1326.007326007326,,0,-1,1768943717.1447754
1768943717152.588,1330.4029304029302,,0,-1,1768943717.152588
1768943717160.4004,1337.7289377289376,,0,-1,1768943717.1604004
1768943717168.213,1342.857142857143,,0,-1,1768943717.168213
1768943717176.0254,1348.7179487179487,,0,-1,1768943717.1760254
1768943717183.838,1355.311355311355,,0,-1,1768943717.183838
1768943717191.6504,1354.5787545787546,,0,-1,1768943717.1916504
1768943717199.463,1353.113553113553,,0,-1,1768943717.199463
1768943717207.2754,1351.6483516483515,,0,-1,1768943717.2072754
1768943717215.088,1347.985347985348,,0,-1,1768943717.215088
1768943717222.9004,1342.857142857143,,0,-1,1768943717.2229004
1768943717230.713,1336.263736263736,,0,-1,1768943717.230713
1768943717238.5254,1334.065934065934,,0,-1,1768943717.2385254
1768943717246.338,1333.3333333333333,,0,-1,1768943717.246338
1768943717254.1504,1334.7985347985348,,0,-1,1768943717.2541504
1768943717261.963,1335.5311355311355,,0,-1,1768943717.261963
1768943717269.7754,1334.7985347985348,,0,-1,1768943717.2697754
1768943717277.588,1331.8681318681315,,0,-1,1768943717.277588
1768943717285.4004,1328.937728937729,,0,-1,1768943717.2854004
1768943717293.213,1324.5421245421244,,0,-1,1768943717.293213
1768943717301.0254,1320.14652014652,,0,-1,1768943717.3010254
1768943717308.838,1317.216117216117,,0,-1,1768943717.308838
1768943717316.6504,1312.087912087912,,0,-1,1768943717.3166504
1768943717324.463,1309.89010989011,,0,-1,1768943717.324463
1768943717332.2754,1306.9597069597069,,0,-1,1768943717.3322754
1768943717340.088,1302.5641025641023,,0,-1,1768943717.340088
1768943717347.9004,1294.5054945054944,,0,-1,1768943717.3479004
1768943717355.713,1292.3076923076922,,0,-1,1768943717.355713
1768943717363.5254,1291.5750915750914,,0,-1,1768943717.3635254
1768943717371.338,1290.10989010989,,0,-1,1768943717.371338
1768943717379.1504,1290.8424908424909,,0,-1,1768943717.3791504
1768943717386.963,1290.8424908424909,,0,-1,1768943717.386963
1768943717394.7754,1293.040293040293,,0,-1,1768943717.3947754
1768943717402.588,1297.4358974358977,,0,-1,1768943717.402588
1768943717410.4004,1298.9010989010987,,0,-1,1768943717.4104004
1768943717418.213,1302.5641025641023,,0,-1,1768943717.418213
1768943717426.0254,1305.4945054945051,,0,-1,1768943717.4260254
1768943717433.838,1312.8205128205127,,0,-1,1768943717.433838
1768943717441.6504,1323.076923076923,,0,-1,1768943717.4416504
1768943717449.463,1331.8681318681315,,0,-1,1768943717.449463
1768943717457.2754,1342.857142857143,,0,-1,1768943717.4572754
1768943717465.088,1357.5091575091574,,0,-1,1768943717.465088
1768943717472.9004,1372.8937728937728,,0,-1,1768943717.4729004
1768943717480.713,1389.0109890109889,,0,-1,1768943717.480713
1768943717488.5254,1408.7912087912086,,0,-1,1768943717.4885254
1768943717496.338,1424.9084249084249,,0,-1,1768943717.496338
1768943717504.1504,1437.362637362637,,0,-1,1768943717.5041504
1768943717511.963,1450.5494505494505,,0,-1,1768943717.511963
1768943717519.7754,1461.5384615384614,,0,-1,1768943717.5197754
1768943717527.588,1472.5274725274724,,0,-1,1768943717.527588
1768943717535.4004,1482.7838827838827,,0,-1,1768943717.5354004
1768943717543.213,1491.5750915750914,,0,-1,1768943717.543213
1768943717551.0254,1499.6336996336995,,0,-1,1768943717.5510254
1768943717558.838,1506.9597069597069,,0,-1,1768943717.558838
1768943717566.6504,1510.6227106227104,,0,-1,1768943717.5666504
1768943717574.463,1517.216117216117,,0,-1,1768943717.574463
1768943717582.2754,1517.9487179487178,,0,-1,1768943717.5822754
1768943717590.088,1525.2747252747251,,0,-1,1768943717.590088
1768943717597.9004,1529.6703296703297,,0,-1,1768943717.5979004
1768943717605.713,1531.135531135531,,0,-1,1768943717.605713
1768943717613.5254,1525.2747252747251,,0,-1,1768943717.6135254
1768943717621.338,1520.14652014652,,0,-1,1768943717.621338
1768943717629.1504,1514.2857142857142,,0,-1,1768943717.6291504
1768943717636.963,1505.4945054945051,,0,-1,1768943717.636963
1768943717644.7754,1494.5054945054944,,0,-1,1768943717.6447754
1768943717652.588,1484.9816849816848,,0,-1,1768943717.652588
1768943717660.4004,1477.6556776556777,,0,-1,1768943717.6604004
1768943717668.213,1476.190476190476,,0,-1,1768943717.668213
1768943717676.0254,1474.7252747252746,,0,-1,1768943717.6760254
1768943717683.838,1474.7252747252746,,0,-1,1768943717.683838
1768943717691.6504,1471.062271062271,,0,-1,1768943717.6916504
1768943717699.463,1466.6666666666663,,0,-1,1768943717.699463
1768943717707.2754,1459.3406593406592,,0,-1,1768943717.7072754
1768943717715.088,1451.2820512820513,,0,-1,1768943717.715088
1768943717722.9004,1446.153846153846,,0,-1,1768943717.7229004
1768943717730.713,1440.29304029304,,0,-1,1768943717.730713
1768943717738.5254,1438.095238095238,,0,-1,1768943717.7385254
1768943717746.338,1434.4322344322345,,0,-1,1768943717.746338
1768943717754.1504,1432.9670329670328,,0,-1,1768943717.7541504
1768943717761.963,1431.5018315018317,,0,-1,1768943717.761963
1768943717769.7754,1436.6300366300366,,0,-1,1768943717.7697754
1768943717777.588,1441.7582417582416,,0,-1,1768943717.777588
1768943717785.4004,1447.6190476190477,,0,-1,1768943717.7854004
1768943717793.213,1452.014652014652,,0,-1,1768943717.793213
1768943717801.0254,1452.7472527472526,,0,-1,1768943717.8010254
1768943717808.838,1444.688644688645,,0,-1,1768943717.808838
1768943717816.6504,1439.5604395604394,,0,-1,1768943717.8166504
1768943717824.463,1438.8278388278388,,0,-1,1768943717.824463
1768943717832.2754,1433.6996336996335,,0,-1,1768943717.8322754
1768943717840.088,1431.5018315018317,,0,-1,1768943717.840088
1768943717847.9004,1427.106227106227,,0,-1,1768943717.8479004
1768943717855.713,1424.175824175824,,0,-1,1768943717.855713
1768943717863.5254,1422.7106227106226,,0,-1,1768943717.8635254
1768943717871.338,1418.3150183150185,,0,-1,1768943717.871338
1768943717879.1504,1413.1868131868132,,0,-1,1768943717.8791504
1768943717886.963,1406.5934065934066,,0,-1,1768943717.886963
1768943717894.7754,1401.4652014652013,,0,-1,1768943717.8947754
1768943717902.588,1400.7326007326003,,0,-1,1768943717.902588
1768943717910.4004,1401.4652014652013,,0,-1,1768943717.9104004
1768943717918.213,1400.7326007326003,,0,-1,1768943717.918213
1768943717926.0254,1398.5347985347985,,0,-1,1768943717.9260254
1768943717933.838,1400.0,,0,-1,1768943717.933838
1768943717941.6504,1400.0,,0,-1,1768943717.9416504
1768943717949.463,1401.4652014652013,,0,-1,1768943717.949463
1768943717957.2754,1403.6630036630036,,0,-1,1768943717.9572754
1768943717965.088,1405.128205128205,,0,-1,1768943717.965088
1768943717972.9004,1405.8608058608058,,0,-1,1768943717.9729004
1768943717980.713,1402.197802197802,,0,-1,1768943717.980713
1768943717988.5254,1399.2673992673992,,0,-1,1768943717.9885254
1768943717996.338,1391.2087912087911,,0,-1,1768943717.996338
1768943718004.1504,1386.080586080586,,0,-1,1768943718.0041504
1768943718011.963,1378.7545787545787,,0,-1,1768943718.011963
1768943718019.7754,1369.230769230769,,0,-1,1768943718.0197754
1768943718027.588,1361.904761904762,,0,-1,1768943718.027588
1768943718035.4004,1357.5091575091574,,0,-1,1768943718.0354004
1768943718043.213,1353.8461538461538,,0,-1,1768943718.043213
1768943718051.0254,1348.7179487179487,,0,-1,1768943718.0510254
1768943718058.838,1348.7179487179487,,0,-1,1768943718.058838
1768943718066.6504,1343.5897435897434,,0,-1,1768943718.0666504
1768943718074.463,1340.6593406593406,,0,-1,1768943718.074463
1768943718082.2754,1340.6593406593406,,0,-1,1768943718.0822754
1768943718090.088,1340.6593406593406,,0,-1,1768943718.090088
1768943718097.9004,1336.263736263736,,0,-1,1768943718.0979004
1768943718105.713,1335.5311355311355,,0,-1,1768943718.105713
1768943718113.5254,1334.065934065934,,0,-1,1768943718.1135254
1768943718121.338,1334.7985347985348,,0,-1,1768943718.121338
1768943718129.1504,1334.7985347985348,,0,-1,1768943718.1291504
1768943718136.963,1334.065934065934,,0,-1,1768943718.136963
1768943718144.7754,1331.135531135531,,0,-1,1768943718.1447754
1768943718152.588,1323.8095238095236,,0,-1,1768943718.152588
1768943718160.4004,1319.4139194139193,,0,-1,1768943718.1604004
1768943718168.213,1316.4835164835165,,0,-1,1768943718.168213
1768943718176.0254,1315.7509157509155,,0,-1,1768943718.1760254
1768943718183.838,1315.7509157509155,,0,-1,1768943718.183838
1768943718191.6504,1318.6813186813183,,0,-1,1768943718.1916504
1768943718199.463,1320.14652014652,,0,-1,1768943718.199463
1768943718207.2754,1323.076923076923,,0,-1,1768943718.2072754
1768943718215.088,1327.4725274725274,,0,-1,1768943718.215088
1768943718222.9004,1327.4725274725274,,0,-1,1768943718.2229004
1768943718230.713,1328.2051282051282,,0,-1,1768943718.230713
1768943718238.5254,1328.937728937729,,0,-1,1768943718.2385254
1768943718246.338,1328.937728937729,,0,-1,1768943718.246338
1768943718254.1504,1328.2051282051282,,0,-1,1768943718.2541504
1768943718261.963,1322.3443223443223,,0,-1,1768943718.261963
1768943718269.7754,1319.4139194139193,,0,-1,1768943718.2697754
1768943718277.588,1317.9487179487178,,0,-1,1768943718.277588
1768943718285.4004,1312.8205128205127,,0,-1,1768943718.2854004
1768943718293.213,1314.2857142857142,,0,-1,1768943718.293213
1768943718301.0254,1313.5531135531137,,0,-1,1768943718.3010254
1768943718308.838,1315.7509157509155,,0,-1,1768943718.308838
1768943718316.6504,1316.4835164835165,,0,-1,1768943718.3166504
1768943718324.463,1317.216117216117,,0,-1,1768943718.324463
1768943718332.2754,1320.8791208791208,,0,-1,1768943718.3322754
1768943718340.088,1320.14652014652,,0,-1,1768943718.340088
1768943718347.9004,1324.5421245421244,,0,-1,1768943718.3479004
1768943718355.713,1331.135531135531,,0,-1,1768943718.355713
1768943718363.5254,1341.3919413919414,,0,-1,1768943718.3635254
1768943718371.338,1351.6483516483515,,0,-1,1768943718.371338
1768943718379.1504,1366.3003663003662,,0,-1,1768943718.3791504
1768943718386.963,1379.4871794871794,,0,-1,1768943718.386963
1768943718394.7754,1389.7435897435896,,0,-1,1768943718.3947754
1768943718402.588,1401.4652014652013,,0,-1,1768943718.402588
1768943718410.4004,1414.6520146520145,,0,-1,1768943718.4104004
1768943718418.213,1433.6996336996335,,0,-1,1768943718.418213
1768943718426.0254,1446.8864468864467,,0,-1,1768943718.4260254
1768943718433.838,1456.4102564102564,,0,-1,1768943718.433838
1768943718441.6504,1463.003663003663,,0,-1,1768943718.4416504
1768943718449.463,1468.8644688644688,,0,-1,1768943718.449463
1768943718457.2754,1474.7252747252746,,0,-1,1768943718.4572754
1768943718465.088,1481.3186813186812,,0,-1,1768943718.465088
1768943718472.9004,1485.7142857142856,,0,-1,1768943718.4729004
1768943718480.713,1492.3076923076922,,0,-1,1768943718.480713
1768943718488.5254,1496.7032967032967,,0,-1,1768943718.4885254
1768943718496.338,1503.2967032967033,,0,-1,1768943718.496338
1768943718504.1504,1513.5531135531137,,0,-1,1768943718.5041504
1768943718511.963,1522.3443223443223,,0,-1,1768943718.511963
1768943718519.7754,1528.2051282051282,,0,-1,1768943718.5197754
1768943718527.588,1539.194139194139,,0,-1,1768943718.527588
1768943718535.4004,1544.3223443223442,,0,-1,1768943718.5354004
1768943718543.213,1551.6483516483515,,0,-1,1768943718.543213
1768943718551.0254,1558.974358974359,,0,-1,1768943718.5510254
1768943718558.838,1563.3699633699632,,0,-1,1768943718.558838
1768943718566.6504,1564.8351648351647,,0,-1,1768943718.5666504
1768943718574.463,1569.230769230769,,0,-1,1768943718.574463
1768943718582.2754,1569.9633699633698,,0,-1,1768943718.5822754
1768943718590.088,1567.032967032967,,0,-1,1768943718.590088
1768943718597.9004,1561.9047619047617,,0,-1,1768943718.5979004
1768943718605.713,1552.3809523809523,,0,-1,1768943718.605713
1768943718613.5254,1539.92673992674,,0,-1,1768943718.6135254
1768943718621.338,1528.2051282051282,,0,-1,1768943718.621338
1768943718629.1504,1509.89010989011,,0,-1,1768943718.6291504
1768943718636.963,1497.4358974358972,,0,-1,1768943718.636963
1768943718644.7754,1484.9816849816848,,0,-1,1768943718.6447754
1768943718652.588,1473.260073260073,,0,-1,1768943718.652588
1768943718660.4004,1465.9340659340658,,0,-1,1768943718.6604004
1768943718668.213,1457.875457875458,,0,-1,1768943718.668213
1768943718676.0254,1451.2820512820513,,0,-1,1768943718.6760254
1768943718683.838,1447.6190476190477,,0,-1,1768943718.683838
1768943718691.6504,1441.0256410256409,,0,-1,1768943718.6916504
1768943718699.463,1442.4908424908424,,0,-1,1768943718.699463
1768943718707.2754,1441.0256410256409,,0,-1,1768943718.7072754
1768943718715.088,1445.4212454212454,,0,-1,1768943718.715088
1768943718722.9004,1448.3516483516482,,0,-1,1768943718.7229004
1768943718730.713,1452.7472527472526,,0,-1,1768943718.730713
1768943718738.5254,1449.8168498168498,,0,-1,1768943718.7385254
1768943718746.338,1446.8864468864467,,0,-1,1768943718.746338
1768943718754.1504,1438.8278388278388,,0,-1,1768943718.7541504
1768943718761.963,1430.7692307692307,,0,-1,1768943718.761963
1768943718769.7754,1421.9780219780218,,0,-1,1768943718.7697754
1768943718777.588,1412.4542124542124,,0,-1,1768943718.777588
1768943718785.4004,1403.6630036630036,,0,-1,1768943718.7854004
1768943718793.213,1391.2087912087911,,0,-1,1768943718.793213
1768943718801.0254,1379.4871794871794,,0,-1,1768943718.8010254
1768943718808.838,1372.8937728937728,,0,-1,1768943718.808838
1768943718816.6504,1371.428571428571,,0,-1,1768943718.8166504
1768943718824.463,1375.8241758241757,,0,-1,1768943718.824463
1768943718832.2754,1383.150183150183,,0,-1,1768943718.8322754
1768943718840.088,1389.7435897435896,,0,-1,1768943718.840088
1768943718847.9004,1396.3369963369962,,0,-1,1768943718.8479004
1768943718855.713,1400.0,,0,-1,1768943718.855713
1768943718863.5254,1402.197802197802,,0,-1,1768943718.8635254
1768943718871.338,1400.7326007326003,,0,-1,1768943718.871338
1768943718879.1504,1396.3369963369962,,0,-1,1768943718.8791504
1768943718886.963,1397.069597069597,,0,-1,1768943718.886963
1768943718894.7754,1391.941391941392,,0,-1,1768943718.8947754
1768943718902.588,1389.7435897435896,,0,-1,1768943718.902588
1768943718910.4004,1387.5457875457876,,0,-1,1768943718.9104004
1768943718918.213,1379.4871794871794,,0,-1,1768943718.918213
1768943718926.0254,1367.032967032967,,0,-1,1768943718.9260254
1768943718933.838,1347.985347985348,,0,-1,1768943718.933838
1768943718941.6504,1334.065934065934,,0,-1,1768943718.9416504
1768943718949.463,1319.4139194139193,,0,-1,1768943718.949463
1768943718957.2754,1317.216117216117,,0,-1,1768943718.9572754
1768943718965.088,1323.076923076923,,0,-1,1768943718.965088
1768943718972.9004,1331.135531135531,,0,-1,1768943718.9729004
1768943718980.713,1340.6593406593406,,0,-1,1768943718.980713
1768943718988.5254,1345.7875457875457,,0,-1,1768943718.9885254
1768943718996.338,1347.985347985348,,0,-1,1768943718.996338
1768943719004.1504,1348.7179487179487,,0,-1,1768943719.0041504
1768943719011.963,1350.18315018315,,0,-1,1768943719.011963
1768943719019.7754,1348.7179487179487,,0,-1,1768943719.0197754
1768943719027.588,1345.7875457875457,,0,-1,1768943719.027588
1768943719035.4004,1343.5897435897434,,0,-1,1768943719.0354004
1768943719043.213,1341.3919413919414,,0,-1,1768943719.043213
1768943719051.0254,1335.5311355311355,,0,-1,1768943719.0510254
1768943719058.838,1331.135531135531,,0,-1,1768943719.058838
1768943719066.6504,1322.3443223443223,,0,-1,1768943719.0666504
1768943719074.463,1320.8791208791208,,0,-1,1768943719.074463
1768943719082.2754,1315.7509157509155,,0,-1,1768943719.0822754
1768943719090.088,1312.8205128205127,,0,-1,1768943719.090088
1768943719097.9004,1310.6227106227104,,0,-1,1768943719.0979004
1768943719105.713,1309.89010989011,,0,-1,1768943719.105713
1768943719113.5254,1310.6227106227104,,0,-1,1768943719.1135254
1768943719121.338,1311.3553113553112,,0,-1,1768943719.121338
1768943719129.1504,1313.5531135531137,,0,-1,1768943719.1291504
1768943719136.963,1315.018315018315,,0,-1,1768943719.136963
1768943719144.7754,1315.018315018315,,0,-1,1768943719.1447754
1768943719152.588,1317.216117216117,,0,-1,1768943719.152588
1768943719160.4004,1317.216117216117,,0,-1,1768943719.1604004
1768943719168.213,1316.4835164835165,,0,-1,1768943719.168213
1768943719176.0254,1318.6813186813183,,0,-1,1768943719.1760254
1768943719183.838,1319.4139194139193,,0,-1,1768943719.183838
1768943719191.6504,1319.4139194139193,,0,-1,1768943719.1916504
1768943719199.463,1323.8095238095236,,0,-1,1768943719.199463
1768943719207.2754,1327.4725274725274,,0,-1,1768943719.2072754
1768943719215.088,1327.4725274725274,,0,-1,1768943719.215088
1768943719222.9004,1329.6703296703297,,0,-1,1768943719.2229004
1768943719230.713,1323.8095238095236,,0,-1,1768943719.230713
1768943719238.5254,1313.5531135531137,,0,-1,1768943719.2385254
1768943719246.338,1298.9010989010987,,0,-1,1768943719.246338
1768943719254.1504,1287.179487179487,,0,-1,1768943719.2541504
1768943719261.963,1271.7948717948716,,0,-1,1768943719.261963
1768943719269.7754,1261.5384615384614,,0,-1,1768943719.2697754
1768943719277.588,1252.7472527472526,,0,-1,1768943719.277588
1768943719285.4004,1247.6190476190477,,0,-1,1768943719.2854004
1768943719293.213,1241.7582417582416,,0,-1,1768943719.293213
1768943719301.0254,1237.362637362637,,0,-1,1768943719.3010254
1768943719308.838,1239.5604395604396,,0,-1,1768943719.308838
1768943719316.6504,1246.153846153846,,0,-1,1768943719.3166504
1768943719324.463,1254.212454212454,,0,-1,1768943719.324463
1768943719332.2754,1268.8644688644688,,0,-1,1768943719.3322754
1768943719340.088,1284.2490842490845,,0,-1,1768943719.340088
1768943719347.9004,1306.9597069597069,,0,-1,1768943719.3479004
1768943719355.713,1336.9963369963368,,0,-1,1768943719.355713
1768943719363.5254,1364.8351648351647,,0,-1,1768943719.3635254
1768943719371.338,1397.8021978021975,,0,-1,1768943719.371338
1768943719379.1504,1424.175824175824,,0,-1,1768943719.3791504
1768943719386.963,1441.7582417582416,,0,-1,1768943719.386963
1768943719394.7754,1458.6080586080584,,0,-1,1768943719.3947754
1768943719402.588,1470.3296703296703,,0,-1,1768943719.402588
1768943719410.4004,1480.5860805860805,,0,-1,1768943719.4104004
1768943719418.213,1490.8424908424906,,0,-1,1768943719.418213
1768943719426.0254,1498.168498168498,,0,-1,1768943719.4260254
1768943719433.838,1506.227106227106,,0,-1,1768943719.433838
1768943719441.6504,1511.3553113553112,,0,-1,1768943719.4416504
1768943719449.463,1515.018315018315,,0,-1,1768943719.449463
1768943719457.2754,1516.4835164835165,,0,-1,1768943719.4572754
1768943719465.088,1517.216117216117,,0,-1,1768943719.465088
1768943719472.9004,1518.6813186813183,,0,-1,1768943719.4729004
1768943719480.713,1521.6117216117216,,0,-1,1768943719.480713
1768943719488.5254,1523.0769230769229,,0,-1,1768943719.4885254
1768943719496.338,1522.3443223443223,,0,-1,1768943719.496338
1768943719504.1504,1517.9487179487178,,0,-1,1768943719.5041504
1768943719511.963,1512.087912087912,,0,-1,1768943719.511963
1768943719519.7754,1504.0293040293038,,0,-1,1768943719.5197754
1768943719527.588,1498.168498168498,,0,-1,1768943719.527588
1768943719535.4004,1490.8424908424906,,0,-1,1768943719.5354004
1768943719543.213,1484.9816849816848,,0,-1,1768943719.543213
1768943719551.0254,1477.6556776556777,,0,-1,1768943719.5510254
1768943719558.838,1476.923076923077,,0,-1,1768943719.558838
1768943719566.6504,1473.260073260073,,0,-1,1768943719.5666504
1768943719574.463,1472.5274725274724,,0,-1,1768943719.574463
1768943719582.2754,1469.5970695970695,,0,-1,1768943719.5822754
1768943719590.088,1465.9340659340658,,0,-1,1768943719.590088
1768943719597.9004,1456.4102564102564,,0,-1,1768943719.5979004
1768943719605.713,1449.8168498168498,,0,-1,1768943719.605713
1768943719613.5254,1441.7582417582416,,0,-1,1768943719.6135254
1768943719621.338,1431.5018315018317,,0,-1,1768943719.621338
1768943719629.1504,1425.6410256410256,,0,-1,1768943719.6291504
1768943719636.963,1415.3846153846152,,0,-1,1768943719.636963
1768943719644.7754,1410.2564102564102,,0,-1,1768943719.6447754
1768943719652.588,1408.7912087912086,,0,-1,1768943719.652588
1768943719660.4004,1408.058608058608,,0,-1,1768943719.6604004
1768943719668.213,1408.7912087912086,,0,-1,1768943719.668213
1768943719676.0254,1400.7326007326003,,0,-1,1768943719.6760254
1768943719683.838,1398.5347985347985,,0,-1,1768943719.683838
1768943719691.6504,1390.4761904761904,,0,-1,1768943719.6916504
1768943719699.463,1388.278388278388,,0,-1,1768943719.699463
1768943719707.2754,1386.080586080586,,0,-1,1768943719.7072754
1768943719715.088,1384.6153846153843,,0,-1,1768943719.715088
1768943719722.9004,1387.5457875457876,,0,-1,1768943719.7229004
1768943719730.713,1391.941391941392,,0,-1,1768943719.730713
1768943719738.5254,1393.4065934065934,,0,-1,1768943719.7385254
1768943719746.338,1390.4761904761904,,0,-1,1768943719.746338
1768943719754.1504,1387.5457875457876,,0,-1,1768943719.7541504
1768943719761.963,1387.5457875457876,,0,-1,1768943719.761963
1768943719769.7754,1384.6153846153843,,0,-1,1768943719.7697754
1768943719777.588,1386.080586080586,,0,-1,1768943719.777588
1768943719785.4004,1389.0109890109889,,0,-1,1768943719.7854004
1768943719793.213,1389.0109890109889,,0,-1,1768943719.793213
1768943719801.0254,1390.4761904761904,,0,-1,1768943719.8010254
1768943719808.838,1396.3369963369962,,0,-1,1768943719.808838
1768943719816.6504,1397.8021978021975,,0,-1,1768943719.8166504
1768943719824.463,1400.7326007326003,,0,-1,1768943719.824463
1768943719832.2754,1398.5347985347985,,0,-1,1768943719.8322754
1768943719840.088,1395.6043956043954,,0,-1,1768943719.840088
1768943719847.9004,1392.6739926739926,,0,-1,1768943719.8479004
1768943719855.713,1385.3479853479853,,0,-1,1768943719.855713
1768943719863.5254,1376.5567765567764,,0,-1,1768943719.8635254
1768943719871.338,1367.032967032967,,0,-1,1768943719.871338
1768943719879.1504,1353.8461538461538,,0,-1,1768943719.8791504
1768943719886.963,1339.194139194139,,0,-1,1768943719.886963
1768943719894.7754,1325.2747252747251,,0,-1,1768943719.8947754
1768943719902.588,1319.4139194139193,,0,-1,1768943719.902588
1768943719910.4004,1315.7509157509155,,0,-1,1768943719.9104004
1768943719918.213,1311.3553113553112,,0,-1,1768943719.918213
1768943719926.0254,1311.3553113553112,,0,-1,1768943719.9260254
1768943719933.838,1311.3553113553112,,0,-1,1768943719.933838
1768943719941.6504,1308.4249084249084,,0,-1,1768943719.9416504
1768943719949.463,1308.4249084249084,,0,-1,1768943719.949463
1768943719957.2754,1307.6923076923076,,0,-1,1768943719.9572754
1768943719965.088,1305.4945054945051,,0,-1,1768943719.965088
1768943719972.9004,1306.227106227106,,0,-1,1768943719.9729004
1768943719980.713,1305.4945054945051,,0,-1,1768943719.980713
1768943719988.5254,1303.2967032967033,,0,-1,1768943719.9885254
1768943719996.338,1298.168498168498,,0,-1,1768943719.996338
1768943720004.1504,1291.5750915750914,,0,-1,1768943720.0041504
1768943720011.963,1287.179487179487,,0,-1,1768943720.011963
1768943720019.7754,1282.051282051282,,0,-1,1768943720.0197754
1768943720027.588,1276.190476190476,,0,-1,1768943720.027588
1768943720035.4004,1280.5860805860805,,0,-1,1768943720.0354004
1768943720043.213,1284.9816849816848,,0,-1,1768943720.043213
1768943720051.0254,1289.3772893772891,,0,-1,1768943720.0510254
1768943720058.838,1293.7728937728937,,0,-1,1768943720.058838
1768943720066.6504,1297.4358974358977,,0,-1,1768943720.0666504
1768943720074.463,1297.4358974358977,,0,-1,1768943720.074463
1768943720082.2754,1293.7728937728937,,0,-1,1768943720.0822754
1768943720090.088,1290.8424908424909,,0,-1,1768943720.090088
1768943720097.9004,1290.10989010989,,0,-1,1768943720.0979004
1768943720105.713,1289.3772893772891,,0,-1,1768943720.105713
1768943720113.5254,1286.4468864468863,,0,-1,1768943720.1135254
1768943720121.338,1284.2490842490845,,0,-1,1768943720.121338
1768943720129.1504,1286.4468864468863,,0,-1,1768943720.1291504
1768943720136.963,1284.9816849816848,,0,-1,1768943720.136963
1768943720144.7754,1289.3772893772891,,0,-1,1768943720.1447754
1768943720152.588,1292.3076923076922,,0,-1,1768943720.152588
1768943720160.4004,1297.4358974358977,,0,-1,1768943720.1604004
1768943720168.213,1296.7032967032967,,0,-1,1768943720.168213
1768943720176.0254,1292.3076923076922,,0,-1,1768943720.1760254
1768943720183.838,1287.9120879120878,,0,-1,1768943720.183838
1768943720191.6504,1287.9120879120878,,0,-1,1768943720.1916504
1768943720199.463,1290.10989010989,,0,-1,1768943720.199463
1768943720207.2754,1295.2380952380952,,0,-1,1768943720.2072754
1768943720215.088,1294.5054945054944,,0,-1,1768943720.215088
1768943720222.9004,1293.7728937728937,,0,-1,1768943720.2229004
1768943720230.713,1292.3076923076922,,0,-1,1768943720.230713
1768943720238.5254,1293.7728937728937,,0,-1,1768943720.2385254
1768943720246.338,1291.5750915750914,,0,-1,1768943720.246338
1768943720254.1504,1285.7142857142856,,0,-1,1768943720.2541504
1768943720261.963,1276.190476190476,,0,-1,1768943720.261963
1768943720269.7754,1271.7948717948716,,0,-1,1768943720.2697754
1768943720277.588,1266.6666666666663,,0,-1,1768943720.277588
1768943720285.4004,1268.131868131868,,0,-1,1768943720.2854004
1768943720293.213,1273.992673992674,,0,-1,1768943720.293213
1768943720301.0254,1279.8534798534797,,1,1,1768943720.3010254
1768943720308.838,1286.4468864468863,,1,1,1768943720.308838
1768943720316.6504,1287.179487179487,,1,1,1768943720.3166504
1768943720324.463,1285.7142857142856,,1,1,1768943720.324463
1768943720332.2754,1284.2490842490845,,1,1,1768943720.3322754
1768943720340.088,1280.5860805860805,,1,1,1768943720.340088
1768943720347.9004,1279.8534798534797,,1,1,1768943720.3479004
1768943720355.713,1273.992673992674,,1,1,1768943720.355713
1768943720363.5254,1268.131868131868,,1,1,1768943720.3635254
1768943720371.338,1264.4688644688645,,1,1,1768943720.371338
1768943720379.1504,1267.3992673992673,,1,1,1768943720.3791504
1768943720386.963,1271.062271062271,,1,1,1768943720.386963
1768943720394.7754,1274.7252747252746,,1,1,1768943720.3947754
1768943720402.588,1277.6556776556777,,1,1,1768943720.402588
1768943720410.4004,1286.4468864468863,,1,1,1768943720.4104004
1768943720418.213,1297.4358974358977,,1,1,1768943720.418213
1768943720426.0254,1311.3553113553112,,1,1,1768943720.4260254
1768943720433.838,1320.14652014652,,1,1,1768943720.433838
1768943720441.6504,1326.739926739927,,1,1,1768943720.4416504
1768943720449.463,1333.3333333333333,,1,1,1768943720.449463
1768943720457.2754,1339.194139194139,,1,1,1768943720.4572754
1768943720465.088,1347.985347985348,,1,1,1768943720.465088
1768943720472.9004,1351.6483516483515,,1,1,1768943720.4729004
1768943720480.713,1355.311355311355,,1,1,1768943720.480713
1768943720488.5254,1357.5091575091574,,1,1,1768943720.4885254
1768943720496.338,1356.7765567765566,,1,1,1768943720.496338
1768943720504.1504,1356.7765567765566,,1,1,1768943720.5041504
1768943720511.963,1356.7765567765566,,1,1,1768943720.511963
1768943720519.7754,1352.3809523809523,,1,1,1768943720.5197754
1768943720527.588,1350.18315018315,,1,1,1768943720.527588
1768943720535.4004,1345.054945054945,,1,1,1768943720.5354004
1768943720543.213,1344.3223443223442,,1,1,1768943720.543213
1768943720551.0254,1342.857142857143,,1,1,1768943720.5510254
1768943720558.838,1337.7289377289376,,1,1,1768943720.558838
1768943720566.6504,1331.8681318681315,,1,1,1768943720.5666504
1768943720574.463,1334.7985347985348,,1,1,1768943720.574463
1768943720582.2754,1345.054945054945,,1,1,1768943720.5822754
1768943720590.088,1361.904761904762,,1,1,1768943720.590088
1768943720597.9004,1375.8241758241757,,1,1,1768943720.5979004
1768943720605.713,1384.6153846153843,,1,1,1768943720.605713
1768943720613.5254,1391.2087912087911,,1,1,1768943720.6135254
1768943720621.338,1397.8021978021975,,1,1,1768943720.621338
1768943720629.1504,1405.128205128205,,1,1,1768943720.6291504
1768943720636.963,1410.2564102564102,,1,1,1768943720.636963
1768943720644.7754,1412.4542124542124,,1,1,1768943720.6447754
1768943720652.588,1406.5934065934066,,1,1,1768943720.652588
1768943720660.4004,1405.128205128205,,1,1,1768943720.6604004
1768943720668.213,1399.2673992673992,,1,1,1768943720.668213
1768943720676.0254,1393.4065934065934,,1,1,1768943720.6760254
1768943720683.838,1384.6153846153843,,1,1,1768943720.683838
1768943720691.6504,1380.952380952381,,1,1,1768943720.6916504
1768943720699.463,1372.8937728937728,,1,1,1768943720.699463
1768943720707.2754,1371.428571428571,,1,1,1768943720.7072754
1768943720715.088,1367.7655677655678,,1,1,1768943720.715088
1768943720722.9004,1364.8351648351647,,1,1,1768943720.7229004
1768943720730.713,1358.974358974359,,1,1,1768943720.730713
1768943720738.5254,1356.043956043956,,1,1,1768943720.7385254
1768943720746.338,1356.043956043956,,1,1,1768943720.746338
1768943720754.1504,1358.241758241758,,1,1,1768943720.7541504
1768943720761.963,1362.6373626373625,,1,1,1768943720.761963
1768943720769.7754,1369.230769230769,,1,1,1768943720.7697754
1768943720777.588,1376.5567765567764,,1,1,1768943720.777588
1768943720785.4004,1381.6849816849815,,1,1,1768943720.7854004
1768943720793.213,1382.4175824175825,,1,1,1768943720.793213
1768943720801.0254,1385.3479853479853,,1,1,1768943720.8010254
1768943720808.838,1383.150183150183,,1,1,1768943720.808838
1768943720816.6504,1380.2197802197802,,1,1,1768943720.8166504
1768943720824.463,1378.021978021978,,1,1,1768943720.824463
1768943720832.2754,1371.428571428571,,1,1,1768943720.8322754
1768943720840.088,1361.1721611721612,,1,1,1768943720.840088
1768943720847.9004,1356.7765567765566,,1,1,1768943720.8479004
1768943720855.713,1353.8461538461538,,1,1,1768943720.855713
1768943720863.5254,1353.113553113553,,1,1,1768943720.8635254
1768943720871.338,1355.311355311355,,1,1,1768943720.871338
1768943720879.1504,1358.974358974359,,1,1,1768943720.8791504
1768943720886.963,1369.230769230769,,1,1,1768943720.886963
1768943720894.7754,1377.2893772893772,,1,1,1768943720.8947754
1768943720902.588,1380.2197802197802,,1,1,1768943720.902588
1768943720910.4004,1380.2197802197802,,1,1,1768943720.9104004
1768943720918.213,1380.2197802197802,,1,1,1768943720.918213
1768943720926.0254,1378.7545787545787,,1,1,1768943720.9260254
1768943720933.838,1377.2893772893772,,1,1,1768943720.933838
1768943720941.6504,1367.7655677655678,,1,1,1768943720.9416504
1768943720949.463,1361.1721611721612,,1,1,1768943720.949463
1768943720957.2754,1353.8461538461538,,1,1,1768943720.9572754
1768943720965.088,1348.7179487179487,,1,1,1768943720.965088
1768943720972.9004,1343.5897435897434,,1,1,1768943720.9729004
1768943720980.713,1339.194139194139,,1,1,1768943720.980713
1768943720988.5254,1336.263736263736,,1,1,1768943720.9885254
1768943720996.338,1328.2051282051282,,1,1,1768943720.996338
1768943721004.1504,1319.4139194139193,,1,1,1768943721.0041504
1768943721011.963,1306.9597069597069,,1,1,1768943721.011963
1768943721019.7754,1295.2380952380952,,1,1,1768943721.0197754
1768943721027.588,1282.7838827838827,,1,1,1768943721.027588
1768943721035.4004,1273.992673992674,,1,1,1768943721.0354004
1768943721043.213,1268.8644688644688,,1,1,1768943721.043213
1768943721051.0254,1265.9340659340658,,1,1,1768943721.0510254
1768943721058.838,1265.2014652014652,,1,1,1768943721.058838
1768943721066.6504,1267.3992673992673,,1,1,1768943721.0666504
1768943721074.463,1272.5274725274724,,1,1,1768943721.074463
1768943721082.2754,1273.260073260073,,1,1,1768943721.0822754
1768943721090.088,1275.4578754578754,,1,1,1768943721.090088
1768943721097.9004,1279.120879120879,,1,1,1768943721.0979004
1768943721105.713,1279.8534798534797,,1,1,1768943721.105713
1768943721113.5254,1279.120879120879,,1,1,1768943721.1135254
1768943721121.338,1281.3186813186812,,1,1,1768943721.121338
1768943721129.1504,1282.7838827838827,,1,1,1768943721.1291504
1768943721136.963,1287.9120879120878,,1,1,1768943721.136963
1768943721144.7754,1292.3076923076922,,1,1,1768943721.1447754
1768943721152.588,1298.9010989010987,,1,1,1768943721.152588
1768943721160.4004,1304.0293040293038,,1,1,1768943721.1604004
1768943721168.213,1306.9597069597069,,1,1,1768943721.168213
1768943721176.0254,1304.7619047619046,,1,1,1768943721.1760254
1768943721183.838,1302.5641025641023,,1,1,1768943721.183838
1768943721191.6504,1302.5641025641023,,1,1,1768943721.1916504
1768943721199.463,1301.8315018315018,,1,1,1768943721.199463
1768943721207.2754,1302.5641025641023,,1,1,1768943721.2072754
1768943721215.088,1301.098901098901,,1,1,1768943721.215088
1768943721222.9004,1299.6336996336995,,1,1,1768943721.2229004
1768943721230.713,1296.7032967032967,,1,1,1768943721.230713
1768943721238.5254,1297.4358974358977,,1,1,1768943721.2385254
1768943721246.338,1296.7032967032967,,1,1,1768943721.246338
1768943721254.1504,1303.2967032967033,,1,1,1768943721.2541504
1768943721261.963,1308.4249084249084,,1,1,1768943721.261963
1768943721269.7754,1320.14652014652,,1,1,1768943721.2697754
1768943721277.588,1330.4029304029302,,1,1,1768943721.277588
1768943721285.4004,1336.263736263736,,1,1,1768943721.2854004
1768943721293.213,1340.6593406593406,,1,1,1768943721.293213
1768943721301.0254,1342.124542124542,,1,1,1768943721.3010254
1768943721308.838,1342.857142857143,,1,1,1768943721.308838
1768943721316.6504,1334.065934065934,,1,1,1768943721.3166504
1768943721324.463,1326.007326007326,,1,1,1768943721.324463
1768943721332.2754,1317.216117216117,,1,1,1768943721.3322754
1768943721340.088,1307.6923076923076,,1,1,1768943721.340088
1768943721347.9004,1304.7619047619046,,1,1,1768943721.3479004
1768943721355.713,1304.7619047619046,,1,1,1768943721.355713
1768943721363.5254,1304.0293040293038,,1,1,1768943721.3635254
1768943721371.338,1298.9010989010987,,1,1,1768943721.371338
1768943721379.1504,1293.040293040293,,1,1,1768943721.3791504
1768943721386.963,1288.6446886446886,,1,1,1768943721.386963
1768943721394.7754,1279.8534798534797,,1,1,1768943721.3947754
1768943721402.588,1279.120879120879,,1,1,1768943721.402588
1768943721410.4004,1278.3882783882782,,1,1,1768943721.4104004
1768943721418.213,1273.992673992674,,1,1,1768943721.418213
1768943721426.0254,1273.260073260073,,1,1,1768943721.4260254
1768943721433.838,1275.4578754578754,,1,1,1768943721.433838
1768943721441.6504,1277.6556776556777,,1,1,1768943721.4416504
1768943721449.463,1284.9816849816848,,1,1,1768943721.449463
1768943721457.2754,1287.9120879120878,,1,1,1768943721.4572754
1768943721465.088,1291.5750915750914,,1,1,1768943721.465088
1768943721472.9004,1295.970695970696,,1,1,1768943721.4729004
1768943721480.713,1300.3663003663005,,1,1,1768943721.480713
1768943721488.5254,1307.6923076923076,,1,1,1768943721.4885254
1768943721496.338,1314.2857142857142,,1,1,1768943721.496338
1768943721504.1504,1323.076923076923,,1,1,1768943721.5041504
1768943721511.963,1334.065934065934,,1,1,1768943721.511963
1768943721519.7754,1343.5897435897434,,1,1,1768943721.5197754
1768943721527.588,1350.9157509157508,,1,1,1768943721.527588
1768943721535.4004,1363.3699633699632,,1,1,1768943721.5354004
1768943721543.213,1375.091575091575,,1,1,1768943721.543213
1768943721551.0254,1383.150183150183,,1,1,1768943721.5510254
1768943721558.838,1387.5457875457876,,1,1,1768943721.558838
1768943721566.6504,1389.7435897435896,,1,1,1768943721.5666504
1768943721574.463,1394.8717948717947,,1,1,1768943721.574463
1768943721582.2754,1392.6739926739926,,1,1,1768943721.5822754
1768943721590.088,1392.6739926739926,,1,1,1768943721.590088
1768943721597.9004,1389.0109890109889,,1,1,1768943721.5979004
1768943721605.713,1387.5457875457876,,1,1,1768943721.605713
1768943721613.5254,1388.278388278388,,1,1,1768943721.6135254
1768943721621.338,1394.139194139194,,1,1,1768943721.621338
1768943721629.1504,1397.069597069597,,1,1,1768943721.6291504
1768943721636.963,1401.4652014652013,,1,1,1768943721.636963
1768943721644.7754,1402.197802197802,,1,1,1768943721.6447754
1768943721652.588,1398.5347985347985,,1,1,1768943721.652588
1768943721660.4004,1395.6043956043954,,1,1,1768943721.6604004
1768943721668.213,1391.2087912087911,,1,1,1768943721.668213
1768943721676.0254,1393.4065934065934,,1,1,1768943721.6760254
1768943721683.838,1395.6043956043954,,1,1,1768943721.683838
1768943721691.6504,1400.7326007326003,,1,1,1768943721.6916504
1768943721699.463,1406.5934065934066,,1,1,1768943721.699463
1768943721707.2754,1408.7912087912086,,1,1,1768943721.7072754
1768943721715.088,1410.2564102564102,,1,1,1768943721.715088
1768943721722.9004,1407.3260073260071,,1,1,1768943721.7229004
1768943721730.713,1405.128205128205,,1,1,1768943721.730713
1768943721738.5254,1401.4652014652013,,1,1,1768943721.7385254
1768943721746.338,1395.6043956043954,,1,1,1768943721.746338
1768943721754.1504,1389.7435897435896,,1,1,1768943721.7541504
1768943721761.963,1386.080586080586,,1,1,1768943721.761963
1768943721769.7754,1381.6849816849815,,1,1,1768943721.7697754
1768943721777.588,1375.091575091575,,1,1,1768943721.777588
1768943721785.4004,1370.6959706959706,,1,1,1768943721.7854004
1768943721793.213,1366.3003663003662,,1,1,1768943721.793213
1768943721801.0254,1360.4395604395604,,1,1,1768943721.8010254
1768943721808.838,1350.18315018315,,1,1,1768943721.808838
1768943721816.6504,1342.857142857143,,1,1,1768943721.8166504
1768943721824.463,1335.5311355311355,,1,1,1768943721.824463
1768943721832.2754,1331.135531135531,,1,1,1768943721.8322754
1768943721840.088,1329.6703296703297,,1,1,1768943721.840088
1768943721847.9004,1330.4029304029302,,1,1,1768943721.8479004
1768943721855.713,1331.135531135531,,1,1,1768943721.855713
1768943721863.5254,1336.263736263736,,1,1,1768943721.8635254
1768943721871.338,1345.054945054945,,1,1,1768943721.871338
1768943721879.1504,1347.2527472527472,,1,1,1768943721.8791504
1768943721886.963,1350.9157509157508,,1,1,1768943721.886963
1768943721894.7754,1352.3809523809523,,1,1,1768943721.8947754
1768943721902.588,1349.4505494505493,,1,1,1768943721.902588
1768943721910.4004,1352.3809523809523,,1,1,1768943721.9104004
1768943721918.213,1352.3809523809523,,1,1,1768943721.918213
1768943721926.0254,1354.5787545787546,,1,1,1768943721.9260254
1768943721933.838,1359.7069597069597,,1,1,1768943721.933838
1768943721941.6504,1357.5091575091574,,1,1,1768943721.9416504
1768943721949.463,1353.113553113553,,1,1,1768943721.949463
1768943721957.2754,1349.4505494505493,,1,1,1768943721.9572754
1768943721965.088,1344.3223443223442,,1,1,1768943721.965088
1768943721972.9004,1339.92673992674,,1,1,1768943721.9729004
1768943721980.713,1337.7289377289376,,1,1,1768943721.980713
1768943721988.5254,1333.3333333333333,,1,1,1768943721.9885254
1768943721996.338,1331.8681318681315,,1,1,1768943721.996338
1768943722004.1504,1330.4029304029302,,1,1,1768943722.0041504
1768943722011.963,1336.263736263736,,1,1,1768943722.011963
1768943722019.7754,1336.9963369963368,,1,1,1768943722.0197754
1768943722027.588,1340.6593406593406,,1,1,1768943722.027588
1768943722035.4004,1340.6593406593406,,1,1,1768943722.0354004
1768943722043.213,1334.7985347985348,,1,1,1768943722.043213
1768943722051.0254,1332.6007326007325,,1,1,1768943722.0510254
1768943722058.838,1331.135531135531,,1,1,1768943722.058838
1768943722066.6504,1328.2051282051282,,1,1,1768943722.0666504
1768943722074.463,1325.2747252747251,,1,1,1768943722.074463
1768943722082.2754,1324.5421245421244,,1,1,1768943722.0822754
1768943722090.088,1324.5421245421244,,1,1,1768943722.090088
1768943722097.9004,1331.135531135531,,1,1,1768943722.0979004
1768943722105.713,1336.9963369963368,,1,1,1768943722.105713
1768943722113.5254,1347.985347985348,,1,1,1768943722.1135254
1768943722121.338,1361.904761904762,,1,1,1768943722.121338
1768943722129.1504,1369.9633699633698,,1,1,1768943722.1291504
1768943722136.963,1375.8241758241757,,1,1,1768943722.136963
1768943722144.7754,1380.2197802197802,,1,1,1768943722.1447754
1768943722152.588,1383.150183150183,,1,1,1768943722.152588
1768943722160.4004,1380.2197802197802,,1,1,1768943722.1604004
1768943722168.213,1373.6263736263736,,1,1,1768943722.168213
1768943722176.0254,1366.3003663003662,,1,1,1768943722.1760254
1768943722183.838,1360.4395604395604,,1,1,1768943722.183838
1768943722191.6504,1350.9157509157508,,1,1,1768943722.1916504
1768943722199.463,1345.054945054945,,1,1,1768943722.199463
1768943722207.2754,1339.194139194139,,1,1,1768943722.2072754
1768943722215.088,1336.9963369963368,,1,1,1768943722.215088
1768943722222.9004,1335.5311355311355,,1,1,1768943722.2229004
1768943722230.713,1331.8681318681315,,1,1,1768943722.230713
1768943722238.5254,1330.4029304029302,,1,1,1768943722.2385254
1768943722246.338,1327.4725274725274,,1,1,1768943722.246338
1768943722254.1504,1318.6813186813183,,1,1,1768943722.2541504
1768943722261.963,1313.5531135531137,,1,1,1768943722.261963
1768943722269.7754,1309.89010989011,,1,1,1768943722.2697754
1768943722277.588,1311.3553113553112,,1,1,1768943722.277588
1768943722285.4004,1311.3553113553112,,1,1,1768943722.2854004
1768943722293.213,1307.6923076923076,,1,1,1768943722.293213
1768943722301.0254,1299.6336996336995,,1,1,1768943722.3010254
1768943722308.838,1290.10989010989,,1,1,1768943722.308838
1768943722316.6504,1286.4468864468863,,1,1,1768943722.3166504
1768943722324.463,1283.5164835164835,,1,1,1768943722.324463
1768943722332.2754,1284.9816849816848,,1,1,1768943722.3322754
1768943722340.088,1289.3772893772891,,1,1,1768943722.340088
1768943722347.9004,1292.3076923076922,,1,1,1768943722.3479004
1768943722355.713,1293.7728937728937,,1,1,1768943722.355713
1768943722363.5254,1289.3772893772891,,1,1,1768943722.3635254
1768943722371.338,1284.9816849816848,,1,1,1768943722.371338
1768943722379.1504,1277.6556776556777,,1,1,1768943722.3791504
1768943722386.963,1274.7252747252746,,1,1,1768943722.386963
1768943722394.7754,1274.7252747252746,,1,1,1768943722.3947754
1768943722402.588,1276.190476190476,,1,1,1768943722.402588
1768943722410.4004,1282.051282051282,,1,1,1768943722.4104004
1768943722418.213,1286.4468864468863,,1,1,1768943722.418213
1768943722426.0254,1291.5750915750914,,1,1,1768943722.4260254
1768943722433.838,1298.168498168498,,1,1,1768943722.433838
1768943722441.6504,1302.5641025641023,,1,1,1768943722.4416504
1768943722449.463,1309.1575091575091,,1,1,1768943722.449463
1768943722457.2754,1320.14652014652,,1,1,1768943722.4572754
1768943722465.088,1331.8681318681315,,1,1,1768943722.465088
1768943722472.9004,1342.857142857143,,1,1,1768943722.4729004
1768943722480.713,1347.985347985348,,1,1,1768943722.480713
1768943722488.5254,1355.311355311355,,1,1,1768943722.4885254
1768943722496.338,1361.1721611721612,,1,1,1768943722.496338
1768943722504.1504,1364.8351648351647,,1,1,1768943722.5041504
1768943722511.963,1365.5677655677655,,1,1,1768943722.511963
1768943722519.7754,1365.5677655677655,,1,1,1768943722.5197754
1768943722527.588,1361.904761904762,,1,1,1768943722.527588
1768943722535.4004,1353.113553113553,,1,1,1768943722.5354004
1768943722543.213,1343.5897435897434,,1,1,1768943722.543213
1768943722551.0254,1335.5311355311355,,1,1,1768943722.5510254
1768943722558.838,1332.6007326007325,,1,1,1768943722.558838
1768943722566.6504,1331.8681318681315,,1,1,1768943722.5666504
1768943722574.463,1335.5311355311355,,1,1,1768943722.574463
1768943722582.2754,1336.9963369963368,,1,1,1768943722.5822754
1768943722590.088,1339.92673992674,,1,1,1768943722.590088
1768943722597.9004,1340.6593406593406,,1,1,1768943722.5979004
1768943722605.713,1347.2527472527472,,1,1,1768943722.605713
1768943722613.5254,1354.5787545787546,,1,1,1768943722.6135254
1768943722621.338,1364.8351648351647,,1,1,1768943722.621338
1768943722629.1504,1374.3589743589744,,1,1,1768943722.6291504
1768943722636.963,1380.952380952381,,1,1,1768943722.636963
1768943722644.7754,1384.6153846153843,,1,1,1768943722.6447754
1768943722652.588,1389.7435897435896,,1,1,1768943722.652588
1768943722660.4004,1394.8717948717947,,1,1,1768943722.6604004
1768943722668.213,1399.2673992673992,,1,1,1768943722.668213
1768943722676.0254,1400.0,,1,1,1768943722.6760254
1768943722683.838,1400.0,,1,1,1768943722.683838
1768943722691.6504,1400.0,,1,1,1768943722.6916504
1768943722699.463,1399.2673992673992,,1,1,1768943722.699463
1768943722707.2754,1392.6739926739926,,1,1,1768943722.7072754
1768943722715.088,1388.278388278388,,1,1,1768943722.715088
1768943722722.9004,1380.2197802197802,,1,1,1768943722.7229004
1768943722730.713,1375.091575091575,,1,1,1768943722.730713
1768943722738.5254,1367.032967032967,,1,1,1768943722.7385254
1768943722746.338,1364.102564102564,,1,1,1768943722.746338
1768943722754.1504,1361.1721611721612,,1,1,1768943722.7541504
1768943722761.963,1357.5091575091574,,1,1,1768943722.761963
1768943722769.7754,1356.043956043956,,1,1,1768943722.7697754
1768943722777.588,1355.311355311355,,1,1,1768943722.777588
1768943722785.4004,1342.857142857143,,1,1,1768943722.7854004
1768943722793.213,1336.263736263736,,1,1,1768943722.793213
1768943722801.0254,1336.263736263736,,1,1,1768943722.8010254
1768943722808.838,1336.263736263736,,1,1,1768943722.808838
1768943722816.6504,1339.194139194139,,1,1,1768943722.8166504
1768943722824.463,1341.3919413919414,,1,1,1768943722.824463
1768943722832.2754,1340.6593406593406,,1,1,1768943722.8322754
1768943722840.088,1340.6593406593406,,1,1,1768943722.840088
1768943722847.9004,1337.7289377289376,,1,1,1768943722.8479004
1768943722855.713,1334.065934065934,,1,1,1768943722.855713
1768943722863.5254,1328.2051282051282,,1,1,1768943722.8635254
1768943722871.338,1325.2747252747251,,1,1,1768943722.871338
1768943722879.1504,1326.007326007326,,1,1,1768943722.8791504
1768943722886.963,1329.6703296703297,,1,1,1768943722.886963
1768943722894.7754,1333.3333333333333,,1,1,1768943722.8947754
1768943722902.588,1338.4615384615383,,1,1,1768943722.902588
1768943722910.4004,1344.3223443223442,,1,1,1768943722.9104004
1768943722918.213,1347.2527472527472,,1,1,1768943722.918213
1768943722926.0254,1350.9157509157508,,1,1,1768943722.9260254
1768943722933.838,1347.985347985348,,1,1,1768943722.933838
1768943722941.6504,1345.054945054945,,1,1,1768943722.9416504
1768943722949.463,1341.3919413919414,,1,1,1768943722.949463
1768943722957.2754,1340.6593406593406,,1,1,1768943722.9572754
1768943722965.088,1337.7289377289376,,1,1,1768943722.965088
1768943722972.9004,1333.3333333333333,,1,1,1768943722.9729004
1768943722980.713,1329.6703296703297,,1,1,1768943722.980713
1768943722988.5254,1317.9487179487178,,1,1,1768943722.9885254
1768943722996.338,1306.227106227106,,1,1,1768943722.996338
1768943723004.1504,1300.3663003663005,,1,1,1768943723.0041504
1768943723011.963,1298.9010989010987,,1,1,1768943723.011963
1768943723019.7754,1301.8315018315018,,1,1,1768943723.0197754
1768943723027.588,1304.0293040293038,,1,1,1768943723.027588
1768943723035.4004,1303.2967032967033,,1,1,1768943723.0354004
1768943723043.213,1298.9010989010987,,1,1,1768943723.043213
1768943723051.0254,1297.4358974358977,,1,1,1768943723.0510254
1768943723058.838,1293.7728937728937,,1,1,1768943723.058838
1768943723066.6504,1295.2380952380952,,1,1,1768943723.0666504
1768943723074.463,1299.6336996336995,,1,1,1768943723.074463
1768943723082.2754,1301.098901098901,,1,1,1768943723.0822754
1768943723090.088,1306.227106227106,,1,1,1768943723.090088
1768943723097.9004,1309.89010989011,,1,1,1768943723.0979004
1768943723105.713,1310.6227106227104,,1,1,1768943723.105713
1768943723113.5254,1311.3553113553112,,1,1,1768943723.1135254
1768943723121.338,1312.8205128205127,,1,1,1768943723.121338
1768943723129.1504,1310.6227106227104,,1,1,1768943723.1291504
1768943723136.963,1313.5531135531137,,1,1,1768943723.136963
1768943723144.7754,1312.8205128205127,,1,1,1768943723.1447754
1768943723152.588,1311.3553113553112,,1,1,1768943723.152588
1768943723160.4004,1309.89010989011,,1,1,1768943723.1604004
1768943723168.213,1311.3553113553112,,1,1,1768943723.168213
1768943723176.0254,1308.4249084249084,,1,1,1768943723.1760254
1768943723183.838,1309.1575091575091,,1,1,1768943723.183838
1768943723191.6504,1307.6923076923076,,1,1,1768943723.1916504
1768943723199.463,1308.4249084249084,,1,1,1768943723.199463
1768943723207.2754,1304.0293040293038,,1,1,1768943723.2072754
1768943723215.088,1304.0293040293038,,1,1,1768943723.215088
1768943723222.9004,1304.0293040293038,,1,1,1768943723.2229004
1768943723230.713,1306.9597069597069,,1,1,1768943723.230713
1768943723238.5254,1311.3553113553112,,1,1,1768943723.2385254
1768943723246.338,1318.6813186813183,,1,1,1768943723.246338
1768943723254.1504,1317.9487179487178,,1,1,1768943723.2541504
1768943723261.963,1315.018315018315,,1,1,1768943723.261963
1768943723269.7754,1309.1575091575091,,0,-1,1768943723.2697754
1768943723277.588,1304.0293040293038,,0,-1,1768943723.277588
1768943723285.4004,1297.4358974358977,,0,-1,1768943723.2854004
1768943723293.213,1295.970695970696,,0,-1,1768943723.293213
1768943723301.0254,1295.970695970696,,0,-1,1768943723.3010254
1768943723308.838,1298.9010989010987,,0,-1,1768943723.308838
1768943723316.6504,1304.0293040293038,,0,-1,1768943723.3166504
1768943723324.463,1309.1575091575091,,0,-1,1768943723.324463
1768943723332.2754,1315.018315018315,,0,-1,1768943723.3322754
1768943723340.088,1319.4139194139193,,0,-1,1768943723.340088
1768943723347.9004,1322.3443223443223,,0,-1,1768943723.3479004
1768943723355.713,1326.739926739927,,0,-1,1768943723.355713
1768943723363.5254,1326.739926739927,,0,-1,1768943723.3635254
1768943723371.338,1335.5311355311355,,0,-1,1768943723.371338
1768943723379.1504,1341.3919413919414,,0,-1,1768943723.3791504
1768943723386.963,1345.7875457875457,,0,-1,1768943723.386963
1768943723394.7754,1348.7179487179487,,0,-1,1768943723.3947754
1768943723402.588,1351.6483516483515,,0,-1,1768943723.402588
1768943723410.4004,1351.6483516483515,,0,-1,1768943723.4104004
1768943723418.213,1353.113553113553,,0,-1,1768943723.418213
1768943723426.0254,1352.3809523809523,,0,-1,1768943723.4260254
1768943723433.838,1354.5787545787546,,0,-1,1768943723.433838
1768943723441.6504,1362.6373626373625,,0,-1,1768943723.4416504
1768943723449.463,1376.5567765567764,,0,-1,1768943723.449463
1768943723457.2754,1387.5457875457876,,0,-1,1768943723.4572754
1768943723465.088,1397.8021978021975,,0,-1,1768943723.465088
1768943723472.9004,1405.8608058608058,,0,-1,1768943723.4729004
1768943723480.713,1405.8608058608058,,0,-1,1768943723.480713
1768943723488.5254,1402.197802197802,,0,-1,1768943723.4885254
1768943723496.338,1402.197802197802,,0,-1,1768943723.496338
1768943723504.1504,1397.069597069597,,0,-1,1768943723.5041504
1768943723511.963,1396.3369963369962,,0,-1,1768943723.511963
1768943723519.7754,1395.6043956043954,,0,-1,1768943723.5197754
1768943723527.588,1394.8717948717947,,0,-1,1768943723.527588
1768943723535.4004,1395.6043956043954,,0,-1,1768943723.5354004
1768943723543.213,1397.8021978021975,,0,-1,1768943723.543213
1768943723551.0254,1393.4065934065934,,0,-1,1768943723.5510254
1768943723558.838,1388.278388278388,,0,-1,1768943723.558838
1768943723566.6504,1382.4175824175825,,0,-1,1768943723.5666504
1768943723574.463,1373.6263736263736,,0,-1,1768943723.574463
1768943723582.2754,1364.8351648351647,,0,-1,1768943723.5822754
1768943723590.088,1354.5787545787546,,0,-1,1768943723.590088
1768943723597.9004,1346.5201465201465,,0,-1,1768943723.5979004
1768943723605.713,1337.7289377289376,,0,-1,1768943723.605713
1768943723613.5254,1332.6007326007325,,0,-1,1768943723.6135254
1768943723621.338,1329.6703296703297,,0,-1,1768943723.621338
1768943723629.1504,1331.8681318681315,,0,-1,1768943723.6291504
1768943723636.963,1336.9963369963368,,0,-1,1768943723.636963
1768943723644.7754,1341.3919413919414,,0,-1,1768943723.6447754
1768943723652.588,1347.2527472527472,,0,-1,1768943723.652588
1768943723660.4004,1352.3809523809523,,0,-1,1768943723.6604004
1768943723668.213,1353.8461538461538,,0,-1,1768943723.668213
1768943723676.0254,1351.6483516483515,,0,-1,1768943723.6760254
1768943723683.838,1355.311355311355,,0,-1,1768943723.683838
1768943723691.6504,1361.1721611721612,,0,-1,1768943723.6916504
1768943723699.463,1364.8351648351647,,0,-1,1768943723.699463
1768943723707.2754,1368.4981684981683,,0,-1,1768943723.7072754
1768943723715.088,1371.428571428571,,0,-1,1768943723.715088
1768943723722.9004,1376.5567765567764,,0,-1,1768943723.7229004
1768943723730.713,1378.7545787545787,,0,-1,1768943723.730713
1768943723738.5254,1380.952380952381,,0,-1,1768943723.7385254
1768943723746.338,1385.3479853479853,,0,-1,1768943723.746338
1768943723754.1504,1386.8131868131868,,0,-1,1768943723.7541504
1768943723761.963,1391.941391941392,,0,-1,1768943723.761963
1768943723769.7754,1387.5457875457876,,0,-1,1768943723.7697754
1768943723777.588,1383.8827838827838,,0,-1,1768943723.777588
1768943723785.4004,1375.8241758241757,,0,-1,1768943723.7854004
1768943723793.213,1366.3003663003662,,0,-1,1768943723.793213
1768943723801.0254,1358.241758241758,,0,-1,1768943723.8010254
1768943723808.838,1353.8461538461538,,0,-1,1768943723.808838
1768943723816.6504,1350.18315018315,,0,-1,1768943723.8166504
1768943723824.463,1350.18315018315,,0,-1,1768943723.824463
1768943723832.2754,1346.5201465201465,,0,-1,1768943723.8322754
1768943723840.088,1348.7179487179487,,0,-1,1768943723.840088
1768943723847.9004,1348.7179487179487,,0,-1,1768943723.8479004
1768943723855.713,1347.985347985348,,0,-1,1768943723.855713
1768943723863.5254,1345.7875457875457,,0,-1,1768943723.8635254
1768943723871.338,1343.5897435897434,,0,-1,1768943723.871338
1768943723879.1504,1339.92673992674,,0,-1,1768943723.8791504
1768943723886.963,1332.6007326007325,,0,-1,1768943723.886963
1768943723894.7754,1323.8095238095236,,0,-1,1768943723.8947754
1768943723902.588,1317.216117216117,,0,-1,1768943723.902588
1768943723910.4004,1310.6227106227104,,0,-1,1768943723.9104004
1768943723918.213,1311.3553113553112,,0,-1,1768943723.918213
1768943723926.0254,1309.89010989011,,0,-1,1768943723.9260254
1768943723933.838,1312.8205128205127,,0,-1,1768943723.933838
1768943723941.6504,1312.087912087912,,0,-1,1768943723.9416504
1768943723949.463,1311.3553113553112,,0,-1,1768943723.949463
1768943723957.2754,1308.4249084249084,,0,-1,1768943723.9572754
1768943723965.088,1312.087912087912,,0,-1,1768943723.965088
1768943723972.9004,1321.6117216117216,,0,-1,1768943723.9729004
1768943723980.713,1334.065934065934,,0,-1,1768943723.980713
1768943723988.5254,1346.5201465201465,,0,-1,1768943723.9885254
1768943723996.338,1356.043956043956,,0,-1,1768943723.996338
1768943724004.1504,1360.4395604395604,,0,-1,1768943724.0041504
1768943724011.963,1358.974358974359,,0,-1,1768943724.011963
1768943724019.7754,1360.4395604395604,,0,-1,1768943724.0197754
1768943724027.588,1356.043956043956,,0,-1,1768943724.027588
1768943724035.4004,1350.9157509157508,,0,-1,1768943724.0354004
1768943724043.213,1346.5201465201465,,0,-1,1768943724.043213
1768943724051.0254,1346.5201465201465,,0,-1,1768943724.0510254
1768943724058.838,1345.054945054945,,0,-1,1768943724.058838
1768943724066.6504,1345.054945054945,,0,-1,1768943724.0666504
1768943724074.463,1347.985347985348,,0,-1,1768943724.074463
1768943724082.2754,1347.2527472527472,,0,-1,1768943724.0822754
1768943724090.088,1343.5897435897434,,0,-1,1768943724.090088
1768943724097.9004,1338.4615384615383,,0,-1,1768943724.0979004
1768943724105.713,1331.8681318681315,,0,-1,1768943724.105713
1768943724113.5254,1331.135531135531,,0,-1,1768943724.1135254
1768943724121.338,1328.937728937729,,0,-1,1768943724.121338
1768943724129.1504,1327.4725274725274,,0,-1,1768943724.1291504
1768943724136.963,1325.2747252747251,,0,-1,1768943724.136963
1768943724144.7754,1326.739926739927,,0,-1,1768943724.1447754
1768943724152.588,1328.2051282051282,,0,-1,1768943724.152588
1768943724160.4004,1331.8681318681315,,0,-1,1768943724.1604004
1768943724168.213,1331.8681318681315,,0,-1,1768943724.168213
1768943724176.0254,1334.065934065934,,0,-1,1768943724.1760254
1768943724183.838,1332.6007326007325,,0,-1,1768943724.183838
1768943724191.6504,1338.4615384615383,,0,-1,1768943724.1916504
1768943724199.463,1340.6593406593406,,0,-1,1768943724.199463
1768943724207.2754,1345.7875457875457,,0,-1,1768943724.2072754
1768943724215.088,1347.2527472527472,,0,-1,1768943724.215088
1768943724222.9004,1347.985347985348,,0,-1,1768943724.2229004
1768943724230.713,1345.054945054945,,0,-1,1768943724.230713
1768943724238.5254,1341.3919413919414,,0,-1,1768943724.2385254
1768943724246.338,1342.124542124542,,0,-1,1768943724.246338
1768943724254.1504,1345.7875457875457,,0,-1,1768943724.2541504
1768943724261.963,1353.113553113553,,0,-1,1768943724.261963
1768943724269.7754,1359.7069597069597,,0,-1,1768943724.2697754
1768943724277.588,1371.428571428571,,0,-1,1768943724.277588
1768943724285.4004,1380.2197802197802,,0,-1,1768943724.2854004
1768943724293.213,1386.080586080586,,0,-1,1768943724.293213
1768943724301.0254,1394.139194139194,,0,-1,1768943724.3010254
1768943724308.838,1401.4652014652013,,0,-1,1768943724.308838
1768943724316.6504,1410.2564102564102,,0,-1,1768943724.3166504
1768943724324.463,1417.5824175824175,,0,-1,1768943724.324463
1768943724332.2754,1427.106227106227,,0,-1,1768943724.3322754
1768943724340.088,1434.4322344322345,,0,-1,1768943724.340088
1768943724347.9004,1446.153846153846,,0,-1,1768943724.3479004
1768943724355.713,1453.479853479853,,0,-1,1768943724.355713
1768943724363.5254,1454.9450549450548,,0,-1,1768943724.3635254
1768943724371.338,1452.014652014652,,0,-1,1768943724.371338
1768943724379.1504,1444.688644688645,,0,-1,1768943724.3791504
1768943724386.963,1446.153846153846,,0,-1,1768943724.386963
1768943724394.7754,1447.6190476190477,,0,-1,1768943724.3947754
1768943724402.588,1447.6190476190477,,0,-1,1768943724.402588
1768943724410.4004,1446.8864468864467,,0,-1,1768943724.4104004
1768943724418.213,1451.2820512820513,,0,-1,1768943724.418213
1768943724426.0254,1456.4102564102564,,0,-1,1768943724.4260254
1768943724433.838,1462.2710622710622,,0,-1,1768943724.433838
1768943724441.6504,1467.3992673992673,,0,-1,1768943724.4416504
1768943724449.463,1477.6556776556777,,0,-1,1768943724.449463
1768943724457.2754,1484.2490842490845,,0,-1,1768943724.4572754
1768943724465.088,1485.7142857142856,,0,-1,1768943724.465088
1768943724472.9004,1483.5164835164835,,0,-1,1768943724.4729004
1768943724480.713,1482.051282051282,,0,-1,1768943724.480713
1768943724488.5254,1479.120879120879,,0,-1,1768943724.4885254
1768943724496.338,1475.4578754578754,,0,-1,1768943724.496338
1768943724504.1504,1475.4578754578754,,0,-1,1768943724.5041504
1768943724511.963,1475.4578754578754,,0,-1,1768943724.511963
1768943724519.7754,1477.6556776556777,,0,-1,1768943724.5197754
1768943724527.588,1479.8534798534797,,0,-1,1768943724.527588
1768943724535.4004,1484.9816849816848,,0,-1,1768943724.5354004
1768943724543.213,1487.9120879120878,,0,-1,1768943724.543213
1768943724551.0254,1486.4468864468863,,0,-1,1768943724.5510254
1768943724558.838,1485.7142857142856,,0,-1,1768943724.558838
1768943724566.6504,1484.2490842490845,,0,-1,1768943724.5666504
1768943724574.463,1476.190476190476,,0,-1,1768943724.574463
1768943724582.2754,1467.3992673992673,,0,-1,1768943724.5822754
1768943724590.088,1461.5384615384614,,0,-1,1768943724.590088
1768943724597.9004,1460.07326007326,,0,-1,1768943724.5979004
1768943724605.713,1460.07326007326,,0,-1,1768943724.605713
1768943724613.5254,1462.2710622710622,,0,-1,1768943724.6135254
1768943724621.338,1462.2710622710622,,0,-1,1768943724.621338
1768943724629.1504,1462.2710622710622,,0,-1,1768943724.6291504
1768943724636.963,1455.6776556776556,,0,-1,1768943724.636963
1768943724644.7754,1446.8864468864467,,0,-1,1768943724.6447754
1768943724652.588,1445.4212454212454,,0,-1,1768943724.652588
1768943724660.4004,1443.956043956044,,0,-1,1768943724.6604004
1768943724668.213,1451.2820512820513,,0,-1,1768943724.668213
1768943724676.0254,1454.212454212454,,0,-1,1768943724.6760254
1768943724683.838,1456.4102564102564,,0,-1,1768943724.683838
1768943724691.6504,1457.142857142857,,0,-1,1768943724.6916504
1768943724699.463,1453.479853479853,,0,-1,1768943724.699463
1768943724707.2754,1452.014652014652,,0,-1,1768943724.7072754
1768943724715.088,1450.5494505494505,,0,-1,1768943724.715088
1768943724722.9004,1450.5494505494505,,0,-1,1768943724.7229004
1768943724730.713,1451.2820512820513,,0,-1,1768943724.730713
1768943724738.5254,1444.688644688645,,0,-1,1768943724.7385254
1768943724746.338,1435.8974358974358,,0,-1,1768943724.746338
1768943724754.1504,1427.8388278388277,,0,-1,1768943724.7541504
1768943724761.963,1419.047619047619,,0,-1,1768943724.761963
1768943724769.7754,1413.1868131868132,,0,-1,1768943724.7697754
1768943724777.588,1413.1868131868132,,0,-1,1768943724.777588
1768943724785.4004,1413.9194139194135,,0,-1,1768943724.7854004
1768943724793.213,1413.9194139194135,,0,-1,1768943724.793213
1768943724801.0254,1415.3846153846152,,0,-1,1768943724.8010254
1768943724808.838,1413.1868131868132,,0,-1,1768943724.808838
1768943724816.6504,1408.7912087912086,,0,-1,1768943724.8166504
1768943724824.463,1402.9304029304028,,0,-1,1768943724.824463
1768943724832.2754,1395.6043956043954,,0,-1,1768943724.8322754
1768943724840.088,1391.2087912087911,,0,-1,1768943724.840088
1768943724847.9004,1393.4065934065934,,0,-1,1768943724.8479004
1768943724855.713,1394.139194139194,,0,-1,1768943724.855713
1768943724863.5254,1396.3369963369962,,0,-1,1768943724.8635254
1768943724871.338,1398.5347985347985,,0,-1,1768943724.871338
1768943724879.1504,1409.5238095238094,,0,-1,1768943724.8791504
1768943724886.963,1419.7802197802198,,0,-1,1768943724.886963
1768943724894.7754,1427.106227106227,,0,-1,1768943724.8947754
1768943724902.588,1435.8974358974358,,0,-1,1768943724.902588
1768943724910.4004,1438.8278388278388,,0,-1,1768943724.9104004
1768943724918.213,1434.4322344322345,,0,-1,1768943724.918213
1768943724926.0254,1430.7692307692307,,0,-1,1768943724.9260254
1768943724933.838,1427.8388278388277,,0,-1,1768943724.933838
1768943724941.6504,1427.8388278388277,,0,-1,1768943724.9416504
1768943724949.463,1435.8974358974358,,0,-1,1768943724.949463
1768943724957.2754,1439.5604395604394,,0,-1,1768943724.9572754
1768943724965.088,1444.688644688645,,0,-1,1768943724.965088
1768943724972.9004,1444.688644688645,,0,-1,1768943724.9729004
1768943724980.713,1445.4212454212454,,0,-1,1768943724.980713
1768943724988.5254,1435.8974358974358,,0,-1,1768943724.9885254
1768943724996.338,1427.106227106227,,0,-1,1768943724.996338
1768943725004.1504,1410.989010989011,,0,-1,1768943725.0041504
1768943725011.963,1400.0,,0,-1,1768943725.011963
1768943725019.7754,1389.0109890109889,,0,-1,1768943725.0197754
1768943725027.588,1378.7545787545787,,0,-1,1768943725.027588
1768943725035.4004,1361.1721611721612,,0,-1,1768943725.0354004
1768943725043.213,1342.124542124542,,0,-1,1768943725.043213
1768943725051.0254,1324.5421245421244,,0,-1,1768943725.0510254
1768943725058.838,1306.9597069597069,,0,-1,1768943725.058838
1768943725066.6504,1296.7032967032967,,0,-1,1768943725.0666504
1768943725074.463,1290.8424908424909,,0,-1,1768943725.074463
1768943725082.2754,1297.4358974358977,,0,-1,1768943725.0822754
1768943725090.088,1313.5531135531137,,0,-1,1768943725.090088
1768943725097.9004,1342.857142857143,,0,-1,1768943725.0979004
1768943725105.713,1376.5567765567764,,0,-1,1768943725.105713
1768943725113.5254,1419.7802197802198,,0,-1,1768943725.1135254
1768943725121.338,1462.2710622710622,,0,-1,1768943725.121338
1768943725129.1504,1501.098901098901,,0,-1,1768943725.1291504
1768943725136.963,1532.6007326007325,,0,-1,1768943725.136963
1768943725144.7754,1558.241758241758,,0,-1,1768943725.1447754
1768943725152.588,1578.021978021978,,0,-1,1768943725.152588
1768943725160.4004,1588.278388278388,,0,-1,1768943725.1604004
1768943725168.213,1581.6849816849815,,0,-1,1768943725.168213
1768943725176.0254,1560.4395604395604,,0,-1,1768943725.1760254
1768943725183.838,1525.2747252747251,,0,-1,1768943725.183838
1768943725191.6504,1478.3882783882782,,0,-1,1768943725.1916504
1768943725199.463,1419.7802197802198,,0,-1,1768943725.199463
1768943725207.2754,1358.241758241758,,0,-1,1768943725.2072754
1768943725215.088,1287.9120879120878,,0,-1,1768943725.215088
1768943725222.9004,1218.3150183150185,,0,-1,1768943725.2229004
1768943725230.713,1150.18315018315,,0,-1,1768943725.230713
1768943725238.5254,1101.8315018315018,,0,-1,1768943725.2385254
1768943725246.338,1073.260073260073,,0,-1,1768943725.246338
1768943725254.1504,1063.7362637362637,,0,-1,1768943725.2541504
1768943725261.963,1066.6666666666663,,0,-1,1768943725.261963
1768943725269.7754,1072.5274725274724,,0,-1,1768943725.2697754
1768943725277.588,1076.923076923077,,0,-1,1768943725.277588
1768943725285.4004,1082.7838827838827,,0,-1,1768943725.2854004
1768943725293.213,1093.040293040293,,0,-1,1768943725.293213
1768943725301.0254,1112.087912087912,,0,-1,1768943725.3010254
1768943725308.838,1145.054945054945,,0,-1,1768943725.308838
1768943725316.6504,1188.278388278388,,0,-1,1768943725.3166504
1768943725324.463,1243.956043956044,,0,-1,1768943725.324463
1768943725332.2754,1312.8205128205127,,0,-1,1768943725.3322754
1768943725340.088,1385.3479853479853,,0,-1,1768943725.340088
1768943725347.9004,1459.3406593406592,,0,-1,1768943725.3479004
1768943725355.713,1530.4029304029302,,0,-1,1768943725.355713
1768943725363.5254,1589.0109890109889,,0,-1,1768943725.3635254
1768943725371.338,1630.7692307692307,,0,-1,1768943725.371338
1768943725379.1504,1655.6776556776556,,0,-1,1768943725.3791504
1768943725386.963,1663.7362637362637,,0,-1,1768943725.386963
1768943725394.7754,1663.003663003663,,0,-1,1768943725.3947754
1768943725402.588,1668.131868131868,,0,-1,1768943725.402588
1768943725410.4004,1679.8534798534797,,0,-1,1768943725.4104004
1768943725418.213,1693.7728937728937,,0,-1,1768943725.418213
1768943725426.0254,1711.3553113553112,,0,-1,1768943725.4260254
1768943725433.838,1732.6007326007325,,0,-1,1768943725.433838
1768943725441.6504,1756.043956043956,,0,-1,1768943725.4416504
1768943725449.463,1777.2893772893772,,0,-1,1768943725.449463
1768943725457.2754,1795.6043956043954,,0,-1,1768943725.4572754
1768943725465.088,1810.2564102564104,,0,-1,1768943725.465088
1768943725472.9004,1822.7106227106224,,0,-1,1768943725.4729004
1768943725480.713,1824.9084249084249,,0,-1,1768943725.480713
1768943725488.5254,1821.9780219780216,,0,-1,1768943725.4885254
1768943725496.338,1819.78021978022,,0,-1,1768943725.496338
1768943725504.1504,1814.6520146520145,,0,-1,1768943725.5041504
1768943725511.963,1821.245421245421,,0,-1,1768943725.511963
1768943725519.7754,1829.3040293040287,,0,-1,1768943725.5197754
1768943725527.588,1833.6996336996333,,0,-1,1768943725.527588
1768943725535.4004,1830.7692307692307,,0,-1,1768943725.5354004
1768943725543.213,1820.5128205128203,,0,-1,1768943725.543213
1768943725551.0254,1804.3956043956043,,0,-1,1768943725.5510254
1768943725558.838,1786.8131868131868,,0,-1,1768943725.558838
1768943725566.6504,1778.021978021978,,0,-1,1768943725.5666504
1768943725574.463,1776.5567765567764,,0,-1,1768943725.574463
1768943725582.2754,1775.8241758241757,,0,-1,1768943725.5822754
1768943725590.088,1776.5567765567764,,0,-1,1768943725.590088
1768943725597.9004,1780.2197802197802,,0,-1,1768943725.5979004
1768943725605.713,1778.021978021978,,0,-1,1768943725.605713
1768943725613.5254,1778.021978021978,,0,-1,1768943725.6135254
1768943725621.338,1778.7545787545787,,0,-1,1768943725.621338
1768943725629.1504,1776.5567765567764,,0,-1,1768943725.6291504
1768943725636.963,1776.5567765567764,,0,-1,1768943725.636963
1768943725644.7754,1772.161172161172,,0,-1,1768943725.6447754
1768943725652.588,1768.4981684981683,,0,-1,1768943725.652588
1768943725660.4004,1756.7765567765566,,0,-1,1768943725.6604004
1768943725668.213,1742.124542124542,,0,-1,1768943725.668213
1768943725676.0254,1718.6813186813183,,0,-1,1768943725.6760254
1768943725683.838,1695.2380952380952,,0,-1,1768943725.683838
1768943725691.6504,1678.3882783882782,,0,-1,1768943725.6916504
1768943725699.463,1663.7362637362637,,0,-1,1768943725.699463
1768943725707.2754,1649.084249084249,,0,-1,1768943725.7072754
1768943725715.088,1634.4322344322345,,0,-1,1768943725.715088
1768943725722.9004,1619.047619047619,,0,-1,1768943725.7229004
1768943725730.713,1595.6043956043954,,0,-1,1768943725.730713
1768943725738.5254,1569.9633699633698,,0,-1,1768943725.7385254
1768943725746.338,1537.7289377289376,,0,-1,1768943725.746338
1768943725754.1504,1501.098901098901,,0,-1,1768943725.7541504
1768943725761.963,1470.3296703296703,,0,-1,1768943725.761963
1768943725769.7754,1446.153846153846,,0,-1,1768943725.7697754
1768943725777.588,1427.8388278388277,,0,-1,1768943725.777588
1768943725785.4004,1417.5824175824175,,0,-1,1768943725.7854004
1768943725793.213,1409.5238095238094,,0,-1,1768943725.793213
1768943725801.0254,1402.9304029304028,,0,-1,1768943725.8010254
1768943725808.838,1397.8021978021975,,0,-1,1768943725.808838
1768943725816.6504,1393.4065934065934,,0,-1,1768943725.8166504
1768943725824.463,1383.8827838827838,,0,-1,1768943725.824463
1768943725832.2754,1370.6959706959706,,0,-1,1768943725.8322754
1768943725840.088,1358.241758241758,,0,-1,1768943725.840088
1768943725847.9004,1338.4615384615383,,0,-1,1768943725.8479004
1768943725855.713,1317.216117216117,,0,-1,1768943725.855713
1768943725863.5254,1301.098901098901,,0,-1,1768943725.8635254
1768943725871.338,1282.7838827838827,,0,-1,1768943725.871338
1768943725879.1504,1271.062271062271,,0,-1,1768943725.8791504
1768943725886.963,1266.6666666666663,,0,-1,1768943725.886963
1768943725894.7754,1269.5970695970695,,0,-1,1768943725.8947754
1768943725902.588,1277.6556776556777,,0,-1,1768943725.902588
1768943725910.4004,1279.8534798534797,,0,-1,1768943725.9104004
1768943725918.213,1278.3882783882782,,0,-1,1768943725.918213
1768943725926.0254,1273.260073260073,,0,-1,1768943725.9260254
1768943725933.838,1267.3992673992673,,0,-1,1768943725.933838
1768943725941.6504,1261.5384615384614,,0,-1,1768943725.9416504
1768943725949.463,1254.9450549450548,,0,-1,1768943725.949463
1768943725957.2754,1252.7472527472526,,0,-1,1768943725.9572754
1768943725965.088,1246.8864468864467,,0,-1,1768943725.965088
1768943725972.9004,1241.7582417582416,,0,-1,1768943725.9729004
1768943725980.713,1236.6300366300366,,0,-1,1768943725.980713
1768943725988.5254,1231.5018315018317,,0,-1,1768943725.9885254
1768943725996.338,1224.9084249084249,,0,-1,1768943725.996338
1768943726004.1504,1215.3846153846152,,0,-1,1768943726.0041504
1768943726011.963,1204.3956043956043,,0,-1,1768943726.011963
1768943726019.7754,1192.6739926739926,,0,-1,1768943726.0197754
1768943726027.588,1181.6849816849815,,0,-1,1768943726.027588
1768943726035.4004,1164.8351648351647,,0,-1,1768943726.0354004
1768943726043.213,1154.5787545787546,,0,-1,1768943726.043213
1768943726051.0254,1145.7875457875457,,0,-1,1768943726.0510254
1768943726058.838,1145.7875457875457,,0,-1,1768943726.058838
1768943726066.6504,1154.5787545787546,,0,-1,1768943726.0666504
1768943726074.463,1169.9633699633698,,0,-1,1768943726.074463
1768943726082.2754,1187.5457875457876,,0,-1,1768943726.0822754
1768943726090.088,1210.989010989011,,0,-1,1768943726.090088
1768943726097.9004,1232.967032967033,,0,-1,1768943726.0979004
1768943726105.713,1252.7472527472526,,0,-1,1768943726.105713
1768943726113.5254,1269.5970695970695,,0,-1,1768943726.1135254
1768943726121.338,1287.179487179487,,0,-1,1768943726.121338
1768943726129.1504,1302.5641025641023,,0,-1,1768943726.1291504
1768943726136.963,1312.087912087912,,0,-1,1768943726.136963
1768943726144.7754,1311.3553113553112,,0,-1,1768943726.1447754
1768943726152.588,1297.4358974358977,,0,-1,1768943726.152588
1768943726160.4004,1268.8644688644688,,0,-1,1768943726.1604004
1768943726168.213,1231.5018315018317,,0,-1,1768943726.168213
1768943726176.0254,1186.080586080586,,0,-1,1768943726.1760254
1768943726183.838,1145.054945054945,,0,-1,1768943726.183838
1768943726191.6504,1106.227106227106,,0,-1,1768943726.1916504
1768943726199.463,1078.3882783882784,,0,-1,1768943726.199463
1768943726207.2754,1055.6776556776556,,0,-1,1768943726.2072754
1768943726215.088,1035.8974358974358,,0,-1,1768943726.215088
1768943726222.9004,1012.4542124542124,,0,-1,1768943726.2229004
1768943726230.713,989.7435897435896,,0,-1,1768943726.230713
1768943726238.5254,964.8351648351648,,0,-1,1768943726.2385254
1768943726246.338,942.124542124542,,0,-1,1768943726.246338
1768943726254.1504,928.2051282051282,,0,-1,1768943726.2541504
1768943726261.963,917.948717948718,,0,-1,1768943726.261963
1768943726269.7754,919.4139194139192,,0,-1,1768943726.2697754
1768943726277.588,934.065934065934,,0,-1,1768943726.277588
1768943726285.4004,964.102564102564,,0,-1,1768943726.2854004
1768943726293.213,1007.3260073260072,,0,-1,1768943726.293213
1768943726301.0254,1054.9450549450548,,0,-1,1768943726.3010254
1768943726308.838,1104.7619047619046,,0,-1,1768943726.308838
1768943726316.6504,1155.311355311355,,0,-1,1768943726.3166504
1768943726324.463,1210.2564102564102,,0,-1,1768943726.324463
1768943726332.2754,1265.2014652014652,,0,-1,1768943726.3322754
1768943726340.088,1319.4139194139193,,0,-1,1768943726.340088
1768943726347.9004,1366.3003663003662,,0,-1,1768943726.3479004
1768943726355.713,1405.8608058608058,,0,-1,1768943726.355713
1768943726363.5254,1444.688644688645,,0,-1,1768943726.3635254
1768943726371.338,1481.3186813186812,,0,-1,1768943726.371338
1768943726379.1504,1517.9487179487178,,0,-1,1768943726.3791504
1768943726386.963,1550.18315018315,,0,-1,1768943726.386963
1768943726394.7754,1577.2893772893772,,0,-1,1768943726.3947754
1768943726402.588,1600.0,,0,-1,1768943726.402588
1768943726410.4004,1613.9194139194135,,0,-1,1768943726.4104004
1768943726418.213,1628.5714285714284,,0,-1,1768943726.418213
1768943726426.0254,1639.5604395604394,,0,-1,1768943726.4260254
1768943726433.838,1647.6190476190477,,0,-1,1768943726.433838
1768943726441.6504,1646.153846153846,,0,-1,1768943726.4416504
1768943726449.463,1642.4908424908424,,0,-1,1768943726.449463
1768943726457.2754,1638.095238095238,,0,-1,1768943726.4572754
1768943726465.088,1632.9670329670328,,0,-1,1768943726.465088
1768943726472.9004,1627.106227106227,,0,-1,1768943726.4729004
1768943726480.713,1616.8498168498168,,0,-1,1768943726.480713
1768943726488.5254,1609.5238095238094,,0,-1,1768943726.4885254
1768943726496.338,1602.9304029304028,,0,-1,1768943726.496338
1768943726504.1504,1595.6043956043954,,0,-1,1768943726.5041504
1768943726511.963,1586.080586080586,,0,-1,1768943726.511963
1768943726519.7754,1573.6263736263736,,0,-1,1768943726.5197754
1768943726527.588,1561.1721611721612,,0,-1,1768943726.527588
1768943726535.4004,1547.2527472527472,,0,-1,1768943726.5354004
1768943726543.213,1533.3333333333333,,0,-1,1768943726.543213
1768943726551.0254,1520.8791208791208,,0,-1,1768943726.5510254
1768943726558.838,1506.9597069597069,,0,-1,1768943726.558838
1768943726566.6504,1493.7728937728937,,0,-1,1768943726.5666504
1768943726574.463,1487.9120879120878,,0,-1,1768943726.574463
1768943726582.2754,1480.5860805860805,,0,-1,1768943726.5822754
1768943726590.088,1473.260073260073,,0,-1,1768943726.590088
1768943726597.9004,1468.131868131868,,0,-1,1768943726.5979004
1768943726605.713,1463.003663003663,,0,-1,1768943726.605713
1768943726613.5254,1460.805860805861,,0,-1,1768943726.6135254
1768943726621.338,1455.6776556776556,,0,-1,1768943726.621338
1768943726629.1504,1449.8168498168498,,0,-1,1768943726.6291504
1768943726636.963,1442.4908424908424,,0,-1,1768943726.636963
1768943726644.7754,1435.164835164835,,0,-1,1768943726.6447754
1768943726652.588,1432.9670329670328,,0,-1,1768943726.652588
1768943726660.4004,1430.03663003663,,0,-1,1768943726.6604004
1768943726668.213,1437.362637362637,,0,-1,1768943726.668213
1768943726676.0254,1444.688644688645,,0,-1,1768943726.6760254
1768943726683.838,1454.212454212454,,0,-1,1768943726.683838
1768943726691.6504,1458.6080586080584,,0,-1,1768943726.6916504
1768943726699.463,1465.201465201465,,0,-1,1768943726.699463
1768943726707.2754,1464.4688644688645,,0,-1,1768943726.7072754
1768943726715.088,1465.201465201465,,0,-1,1768943726.715088
1768943726722.9004,1467.3992673992673,,0,-1,1768943726.7229004
1768943726730.713,1470.3296703296703,,0,-1,1768943726.730713
1768943726738.5254,1468.131868131868,,0,-1,1768943726.7385254
1768943726746.338,1468.131868131868,,0,-1,1768943726.746338
1768943726754.1504,1469.5970695970695,,0,-1,1768943726.7541504
1768943726761.963,1468.8644688644688,,0,-1,1768943726.761963
1768943726769.7754,1472.5274725274724,,0,-1,1768943726.7697754
1768943726777.588,1475.4578754578754,,0,-1,1768943726.777588
1768943726785.4004,1478.3882783882782,,0,-1,1768943726.7854004
1768943726793.213,1481.3186813186812,,0,-1,1768943726.793213
1768943726801.0254,1479.8534798534797,,0,-1,1768943726.8010254
1768943726808.838,1476.190476190476,,0,-1,1768943726.808838
1768943726816.6504,1472.5274725274724,,0,-1,1768943726.8166504
1768943726824.463,1473.260073260073,,0,-1,1768943726.824463
1768943726832.2754,1474.7252747252746,,0,-1,1768943726.8322754
1768943726840.088,1473.992673992674,,0,-1,1768943726.840088
1768943726847.9004,1472.5274725274724,,0,-1,1768943726.8479004
1768943726855.713,1473.260073260073,,0,-1,1768943726.855713
1768943726863.5254,1467.3992673992673,,0,-1,1768943726.8635254
1768943726871.338,1458.6080586080584,,0,-1,1768943726.871338
1768943726879.1504,1452.014652014652,,0,-1,1768943726.8791504
1768943726886.963,1444.688644688645,,0,-1,1768943726.886963
1768943726894.7754,1437.362637362637,,0,-1,1768943726.8947754
1768943726902.588,1430.7692307692307,,0,-1,1768943726.902588
1768943726910.4004,1424.9084249084249,,0,-1,1768943726.9104004
1768943726918.213,1415.3846153846152,,0,-1,1768943726.918213
1768943726926.0254,1403.6630036630036,,0,-1,1768943726.9260254
1768943726933.838,1393.4065934065934,,0,-1,1768943726.933838
1768943726941.6504,1378.7545787545787,,0,-1,1768943726.9416504
1768943726949.463,1368.4981684981683,,0,-1,1768943726.949463
1768943726957.2754,1352.3809523809523,,0,-1,1768943726.9572754
1768943726965.088,1342.124542124542,,0,-1,1768943726.965088
1768943726972.9004,1332.6007326007325,,0,-1,1768943726.9729004
1768943726980.713,1328.937728937729,,0,-1,1768943726.980713
1768943726988.5254,1327.4725274725274,,0,-1,1768943726.9885254
1768943726996.338,1325.2747252747251,,0,-1,1768943726.996338
1768943727004.1504,1326.007326007326,,0,-1,1768943727.0041504
1768943727011.963,1320.8791208791208,,0,-1,1768943727.011963
1768943727019.7754,1316.4835164835165,,0,-1,1768943727.0197754
1768943727027.588,1308.4249084249084,,0,-1,1768943727.027588
1768943727035.4004,1305.4945054945051,,0,-1,1768943727.0354004
1768943727043.213,1301.8315018315018,,0,-1,1768943727.043213
1768943727051.0254,1304.7619047619046,,0,-1,1768943727.0510254
1768943727058.838,1312.087912087912,,0,-1,1768943727.058838
1768943727066.6504,1316.4835164835165,,0,-1,1768943727.0666504
1768943727074.463,1321.6117216117216,,0,-1,1768943727.074463
1768943727082.2754,1328.937728937729,,0,-1,1768943727.0822754
1768943727090.088,1336.9963369963368,,0,-1,1768943727.090088
1768943727097.9004,1347.985347985348,,0,-1,1768943727.0979004
1768943727105.713,1362.6373626373625,,0,-1,1768943727.105713
1768943727113.5254,1371.428571428571,,0,-1,1768943727.1135254
1768943727121.338,1380.2197802197802,,0,-1,1768943727.121338
1768943727129.1504,1385.3479853479853,,0,-1,1768943727.1291504
1768943727136.963,1383.8827838827838,,0,-1,1768943727.136963
1768943727144.7754,1381.6849816849815,,0,-1,1768943727.1447754
1768943727152.588,1376.5567765567764,,0,-1,1768943727.152588
1768943727160.4004,1372.161172161172,,0,-1,1768943727.1604004
1768943727168.213,1370.6959706959706,,0,-1,1768943727.168213
1768943727176.0254,1372.8937728937728,,0,-1,1768943727.1760254
1768943727183.838,1373.6263736263736,,0,-1,1768943727.183838
1768943727191.6504,1373.6263736263736,,0,-1,1768943727.1916504
1768943727199.463,1370.6959706959706,,0,-1,1768943727.199463
1768943727207.2754,1364.8351648351647,,0,-1,1768943727.2072754
1768943727215.088,1359.7069597069597,,0,-1,1768943727.215088
1768943727222.9004,1356.043956043956,,0,-1,1768943727.2229004
1768943727230.713,1356.7765567765566,,0,-1,1768943727.230713
1768943727238.5254,1361.904761904762,,0,-1,1768943727.2385254
1768943727246.338,1371.428571428571,,0,-1,1768943727.246338
1768943727254.1504,1380.2197802197802,,0,-1,1768943727.2541504
1768943727261.963,1389.0109890109889,,0,-1,1768943727.261963
1768943727269.7754,1398.5347985347985,,0,-1,1768943727.2697754
1768943727277.588,1405.8608058608058,,0,-1,1768943727.277588
1768943727285.4004,1409.5238095238094,,0,-1,1768943727.2854004
1768943727293.213,1410.989010989011,,0,-1,1768943727.293213
1768943727301.0254,1416.117216117216,,0,-1,1768943727.3010254
1768943727308.838,1419.7802197802198,,0,-1,1768943727.308838
1768943727316.6504,1421.9780219780218,,0,-1,1768943727.3166504
1768943727324.463,1423.4432234432234,,0,-1,1768943727.324463
1768943727332.2754,1427.106227106227,,0,-1,1768943727.3322754
1768943727340.088,1427.8388278388277,,0,-1,1768943727.340088
1768943727347.9004,1428.5714285714284,,0,-1,1768943727.3479004
1768943727355.713,1435.8974358974358,,0,-1,1768943727.355713
1768943727363.5254,1441.7582417582416,,0,-1,1768943727.3635254
1768943727371.338,1449.8168498168498,,0,-1,1768943727.371338
1768943727379.1504,1455.6776556776556,,0,-1,1768943727.3791504
1768943727386.963,1457.875457875458,,0,-1,1768943727.386963
1768943727394.7754,1462.2710622710622,,0,-1,1768943727.3947754
1768943727402.588,1463.7362637362637,,0,-1,1768943727.402588
1768943727410.4004,1466.6666666666663,,0,-1,1768943727.4104004
1768943727418.213,1469.5970695970695,,0,-1,1768943727.418213
1768943727426.0254,1476.190476190476,,0,-1,1768943727.4260254
1768943727433.838,1482.051282051282,,0,-1,1768943727.433838
1768943727441.6504,1490.10989010989,,0,-1,1768943727.4416504
1768943727449.463,1492.3076923076922,,0,-1,1768943727.449463
1768943727457.2754,1490.10989010989,,0,-1,1768943727.4572754
1768943727465.088,1491.5750915750914,,0,-1,1768943727.465088
1768943727472.9004,1490.8424908424906,,0,-1,1768943727.4729004
1768943727480.713,1489.3772893772891,,0,-1,1768943727.480713
1768943727488.5254,1484.2490842490845,,0,-1,1768943727.4885254
1768943727496.338,1477.6556776556777,,0,-1,1768943727.496338
1768943727504.1504,1472.5274725274724,,0,-1,1768943727.5041504
1768943727511.963,1471.062271062271,,0,-1,1768943727.511963
1768943727519.7754,1468.8644688644688,,0,-1,1768943727.5197754
1768943727527.588,1465.9340659340658,,0,-1,1768943727.527588
1768943727535.4004,1462.2710622710622,,0,-1,1768943727.5354004
1768943727543.213,1460.07326007326,,0,-1,1768943727.543213
1768943727551.0254,1455.6776556776556,,0,-1,1768943727.5510254
1768943727558.838,1454.212454212454,,0,-1,1768943727.558838
1768943727566.6504,1453.479853479853,,0,-1,1768943727.5666504
1768943727574.463,1454.9450549450548,,0,-1,1768943727.574463
1768943727582.2754,1457.142857142857,,0,-1,1768943727.5822754
1768943727590.088,1458.6080586080584,,0,-1,1768943727.590088
1768943727597.9004,1457.875457875458,,0,-1,1768943727.5979004
1768943727605.713,1454.9450549450548,,0,-1,1768943727.605713
1768943727613.5254,1454.212454212454,,0,-1,1768943727.6135254
1768943727621.338,1452.7472527472526,,0,-1,1768943727.621338
1768943727629.1504,1449.084249084249,,0,-1,1768943727.6291504
1768943727636.963,1446.153846153846,,0,-1,1768943727.636963
1768943727644.7754,1445.4212454212454,,0,-1,1768943727.6447754
1768943727652.588,1442.4908424908424,,0,-1,1768943727.652588
1768943727660.4004,1437.362637362637,,1,2,1768943727.6604004
1768943727668.213,1433.6996336996335,,1,2,1768943727.668213
1768943727676.0254,1427.106227106227,,1,2,1768943727.6760254
1768943727683.838,1421.245421245421,,1,2,1768943727.683838
1768943727691.6504,1409.5238095238094,,1,2,1768943727.6916504
1768943727699.463,1396.3369963369962,,1,2,1768943727.699463
1768943727707.2754,1383.8827838827838,,1,2,1768943727.7072754
1768943727715.088,1369.230769230769,,1,2,1768943727.715088
1768943727722.9004,1358.974358974359,,1,2,1768943727.7229004
1768943727730.713,1345.7875457875457,,1,2,1768943727.730713
1768943727738.5254,1333.3333333333333,,1,2,1768943727.7385254
1768943727746.338,1321.6117216117216,,1,2,1768943727.746338
1768943727754.1504,1317.216117216117,,1,2,1768943727.7541504
1768943727761.963,1317.9487179487178,,1,2,1768943727.761963
1768943727769.7754,1316.4835164835165,,1,2,1768943727.7697754
1768943727777.588,1320.8791208791208,,1,2,1768943727.777588
1768943727785.4004,1320.14652014652,,1,2,1768943727.7854004
1768943727793.213,1325.2747252747251,,1,2,1768943727.793213
1768943727801.0254,1330.4029304029302,,1,2,1768943727.8010254
1768943727808.838,1336.9963369963368,,1,2,1768943727.808838
1768943727816.6504,1341.3919413919414,,1,2,1768943727.8166504
1768943727824.463,1347.985347985348,,1,2,1768943727.824463
1768943727832.2754,1353.113553113553,,1,2,1768943727.8322754
1768943727840.088,1356.043956043956,,1,2,1768943727.840088
1768943727847.9004,1354.5787545787546,,1,2,1768943727.8479004
1768943727855.713,1350.9157509157508,,1,2,1768943727.855713
1768943727863.5254,1343.5897435897434,,1,2,1768943727.8635254
1768943727871.338,1335.5311355311355,,1,2,1768943727.871338
1768943727879.1504,1326.739926739927,,1,2,1768943727.8791504
1768943727886.963,1324.5421245421244,,1,2,1768943727.886963
1768943727894.7754,1326.739926739927,,1,2,1768943727.8947754
1768943727902.588,1333.3333333333333,,1,2,1768943727.902588
1768943727910.4004,1334.7985347985348,,1,2,1768943727.9104004
1768943727918.213,1338.4615384615383,,1,2,1768943727.918213
1768943727926.0254,1341.3919413919414,,1,2,1768943727.9260254
1768943727933.838,1343.5897435897434,,1,2,1768943727.933838
1768943727941.6504,1339.194139194139,,1,2,1768943727.9416504
1768943727949.463,1337.7289377289376,,1,2,1768943727.949463
1768943727957.2754,1335.5311355311355,,1,2,1768943727.9572754
1768943727965.088,1330.4029304029302,,1,2,1768943727.965088
1768943727972.9004,1331.135531135531,,1,2,1768943727.9729004
1768943727980.713,1327.4725274725274,,1,2,1768943727.980713
1768943727988.5254,1327.4725274725274,,1,2,1768943727.9885254
1768943727996.338,1325.2747252747251,,1,2,1768943727.996338
1768943728004.1504,1328.2051282051282,,1,2,1768943728.0041504
1768943728011.963,1328.937728937729,,1,2,1768943728.011963
1768943728019.7754,1332.6007326007325,,1,2,1768943728.0197754
1768943728027.588,1329.6703296703297,,1,2,1768943728.027588
1768943728035.4004,1323.8095238095236,,1,2,1768943728.0354004
1768943728043.213,1315.018315018315,,1,2,1768943728.043213
1768943728051.0254,1307.6923076923076,,1,2,1768943728.0510254
1768943728058.838,1303.2967032967033,,1,2,1768943728.058838
1768943728066.6504,1304.0293040293038,,1,2,1768943728.0666504
1768943728074.463,1303.2967032967033,,1,2,1768943728.074463
1768943728082.2754,1306.9597069597069,,1,2,1768943728.0822754
1768943728090.088,1312.8205128205127,,1,2,1768943728.090088
1768943728097.9004,1317.216117216117,,1,2,1768943728.0979004
1768943728105.713,1320.8791208791208,,1,2,1768943728.105713
1768943728113.5254,1326.007326007326,,1,2,1768943728.1135254
1768943728121.338,1332.6007326007325,,1,2,1768943728.121338
1768943728129.1504,1339.92673992674,,1,2,1768943728.1291504
1768943728136.963,1345.054945054945,,1,2,1768943728.136963
1768943728144.7754,1350.18315018315,,1,2,1768943728.1447754
1768943728152.588,1353.8461538461538,,1,2,1768943728.152588
1768943728160.4004,1353.8461538461538,,1,2,1768943728.1604004
