Shimmer_6815_Timestamp_Unix_CAL,Shimmer_6815_PPG_A13_CAL,Unnamed: 2,inhale,inhale_id,epoch_sec
1768775938001.9531,52.014652014652015,,0,-1,1768775938.0019531
1768775938009.7656,151.64835164835165,,0,-1,1768775938.0097656
1768775938017.578,269.5970695970696,,0,-1,1768775938.017578
1768775938025.3906,399.2673992673992,,0,-1,1768775938.0253906
1768775938033.2031,520.1465201465201,,0,-1,1768775938.0332031
1768775938041.0156,635.8974358974358,,0,-1,1768775938.0410156
1768775938048.828,737.7289377289377,,0,-1,1768775938.048828
1768775938056.6406,823.4432234432234,,0,-1,1768775938.0566406
1768775938064.4531,902.5641025641024,,0,-1,1768775938.0644531
1768775938072.2656,966.3003663003662,,0,-1,1768775938.0722656
1768775938080.078,1026.3736263736264,,0,-1,1768775938.080078
1768775938087.8906,1072.5274725274724,,0,-1,1768775938.0878906
1768775938095.7031,1112.8205128205127,,0,-1,1768775938.0957031
1768775938103.5156,1142.124542124542,,0,-1,1768775938.1035156
1768775938111.328,1169.230769230769,,0,-1,1768775938.111328
1768775938119.1406,1186.8131868131868,,0,-1,1768775938.1191406
1768775938126.9531,1202.9304029304028,,0,-1,1768775938.1269531
1768775938134.7656,1210.989010989011,,0,-1,1768775938.1347656
1768775938142.578,1224.9084249084249,,0,-1,1768775938.142578
1768775938150.3906,1230.03663003663,,0,-1,1768775938.1503906
1768775938158.2031,1238.095238095238,,0,-1,1768775938.1582031
1768775938166.0156,1247.6190476190477,,0,-1,1768775938.1660156
1768775938173.828,1252.014652014652,,0,-1,1768775938.173828
1768775938181.6406,1255.6776556776556,,0,-1,1768775938.1816406
1768775938189.4531,1261.5384615384614,,0,-1,1768775938.1894531
1768775938197.2656,1266.6666666666663,,0,-1,1768775938.1972656
1768775938205.078,1272.5274725274724,,0,-1,1768775938.205078
1768775938212.8906,1279.8534798534797,,0,-1,1768775938.2128906
1768775938220.7031,1290.10989010989,,0,-1,1768775938.2207031
1768775938228.5156,1299.6336996336995,,0,-1,1768775938.2285156
1768775938236.328,1306.227106227106,,0,-1,1768775938.236328
1768775938244.1406,1317.216117216117,,0,-1,1768775938.2441406
1768775938251.9531,1327.4725274725274,,0,-1,1768775938.2519531
1768775938259.7656,1334.065934065934,,0,-1,1768775938.2597656
1768775938267.578,1342.124542124542,,0,-1,1768775938.267578
1768775938275.3906,1350.18315018315,,0,-1,1768775938.2753906
1768775938283.2031,1358.241758241758,,0,-1,1768775938.2832031
1768775938291.0156,1365.5677655677655,,0,-1,1768775938.2910156
1768775938298.828,1369.230769230769,,0,-1,1768775938.298828
1768775938306.6406,1371.428571428571,,0,-1,1768775938.3066406
1768775938314.4531,1371.428571428571,,0,-1,1768775938.3144531
1768775938322.2656,1372.161172161172,,0,-1,1768775938.3222656
1768775938330.078,1370.6959706959706,,0,-1,1768775938.330078
1768775938337.8906,1372.161172161172,,0,-1,1768775938.3378906
1768775938345.7031,1377.2893772893772,,0,-1,1768775938.3457031
1768775938353.5156,1383.150183150183,,0,-1,1768775938.3535156
1768775938361.328,1384.6153846153843,,0,-1,1768775938.361328
1768775938369.1406,1389.7435897435896,,0,-1,1768775938.3691406
1768775938376.9531,1396.3369963369962,,0,-1,1768775938.3769531
1768775938384.7656,1404.3956043956043,,0,-1,1768775938.3847656
1768775938392.578,1409.5238095238094,,0,-1,1768775938.392578
1768775938400.3906,1410.989010989011,,0,-1,1768775938.4003906
1768775938408.2031,1413.1868131868132,,0,-1,1768775938.4082031
1768775938416.0156,1414.6520146520145,,0,-1,1768775938.4160156
1768775938423.828,1410.2564102564102,,0,-1,1768775938.423828
1768775938431.6406,1407.3260073260071,,0,-1,1768775938.4316406
1768775938439.4531,1407.3260073260071,,0,-1,1768775938.4394531
1768775938447.2656,1409.5238095238094,,0,-1,1768775938.4472656
1768775938455.078,1413.1868131868132,,0,-1,1768775938.455078
1768775938462.8906,1412.4542124542124,,0,-1,1768775938.4628906
1768775938470.7031,1412.4542124542124,,0,-1,1768775938.4707031
1768775938478.5156,1410.2564102564102,,0,-1,1768775938.4785156
1768775938486.328,1411.7216117216117,,0,-1,1768775938.486328
1768775938494.1406,1410.2564102564102,,0,-1,1768775938.4941406
1768775938501.9531,1408.7912087912086,,0,-1,1768775938.5019531
1768775938509.7656,1408.058608058608,,0,-1,1768775938.5097656
1768775938517.578,1407.3260073260071,,0,-1,1768775938.517578
1768775938525.3906,1405.8608058608058,,0,-1,1768775938.5253906
1768775938533.2031,1404.3956043956043,,0,-1,1768775938.5332031
1768775938541.0156,1396.3369963369962,,0,-1,1768775938.5410156
1768775938548.828,1388.278388278388,,0,-1,1768775938.548828
1768775938556.6406,1388.278388278388,,0,-1,1768775938.5566406
1768775938564.4531,1389.0109890109889,,0,-1,1768775938.5644531
1768775938572.2656,1390.4761904761904,,0,-1,1768775938.5722656
1768775938580.078,1391.941391941392,,0,-1,1768775938.580078
1768775938587.8906,1394.8717948717947,,0,-1,1768775938.5878906
1768775938595.7031,1396.3369963369962,,0,-1,1768775938.5957031
1768775938603.5156,1394.8717948717947,,0,-1,1768775938.6035156
1768775938611.328,1391.941391941392,,0,-1,1768775938.611328
1768775938619.1406,1389.7435897435896,,0,-1,1768775938.6191406
1768775938626.9531,1385.3479853479853,,0,-1,1768775938.6269531
1768775938634.7656,1380.952380952381,,0,-1,1768775938.6347656
1768775938642.578,1375.8241758241757,,0,-1,1768775938.642578
1768775938650.3906,1369.9633699633698,,0,-1,1768775938.6503906
1768775938658.2031,1367.032967032967,,0,-1,1768775938.6582031
1768775938666.0156,1367.7655677655678,,0,-1,1768775938.6660156
1768775938673.828,1372.8937728937728,,0,-1,1768775938.673828
1768775938681.6406,1374.3589743589744,,0,-1,1768775938.6816406
1768775938689.4531,1372.8937728937728,,0,-1,1768775938.6894531
1768775938697.2656,1371.428571428571,,0,-1,1768775938.6972656
1768775938705.078,1372.161172161172,,0,-1,1768775938.705078
1768775938712.8906,1372.161172161172,,0,-1,1768775938.7128906
1768775938720.7031,1375.8241758241757,,0,-1,1768775938.7207031
1768775938728.5156,1378.021978021978,,0,-1,1768775938.7285156
1768775938736.328,1375.8241758241757,,0,-1,1768775938.736328
1768775938744.1406,1372.161172161172,,0,-1,1768775938.7441406
1768775938751.9531,1369.230769230769,,0,-1,1768775938.7519531
1768775938759.7656,1369.9633699633698,,0,-1,1768775938.7597656
1768775938767.578,1372.8937728937728,,0,-1,1768775938.767578
1768775938775.3906,1374.3589743589744,,0,-1,1768775938.7753906
1768775938783.2031,1374.3589743589744,,0,-1,1768775938.7832031
1768775938791.0156,1373.6263736263736,,0,-1,1768775938.7910156
1768775938798.828,1374.3589743589744,,0,-1,1768775938.798828
1768775938806.6406,1378.021978021978,,0,-1,1768775938.8066406
1768775938814.4531,1381.6849816849815,,0,-1,1768775938.8144531
1768775938822.2656,1380.2197802197802,,0,-1,1768775938.8222656
1768775938830.078,1380.952380952381,,0,-1,1768775938.830078
1768775938837.8906,1377.2893772893772,,0,-1,1768775938.8378906
1768775938845.7031,1368.4981684981683,,0,-1,1768775938.8457031
1768775938853.5156,1358.974358974359,,0,-1,1768775938.8535156
1768775938861.328,1351.6483516483515,,0,-1,1768775938.861328
1768775938869.1406,1347.985347985348,,0,-1,1768775938.8691406
1768775938876.9531,1349.4505494505493,,0,-1,1768775938.8769531
1768775938884.7656,1352.3809523809523,,0,-1,1768775938.8847656
1768775938892.578,1354.5787545787546,,0,-1,1768775938.892578
1768775938900.3906,1356.7765567765566,,0,-1,1768775938.9003906
1768775938908.2031,1358.241758241758,,0,-1,1768775938.9082031
1768775938916.0156,1359.7069597069597,,0,-1,1768775938.9160156
1768775938923.828,1356.043956043956,,0,-1,1768775938.923828
1768775938931.6406,1351.6483516483515,,0,-1,1768775938.9316406
1768775938939.4531,1346.5201465201465,,0,-1,1768775938.9394531
1768775938947.2656,1342.124542124542,,0,-1,1768775938.9472656
1768775938955.078,1337.7289377289376,,0,-1,1768775938.955078
1768775938962.8906,1339.194139194139,,0,-1,1768775938.9628906
1768775938970.7031,1343.5897435897434,,0,-1,1768775938.9707031
1768775938978.5156,1350.9157509157508,,0,-1,1768775938.9785156
1768775938986.328,1358.974358974359,,0,-1,1768775938.986328
1768775938994.1406,1363.3699633699632,,0,-1,1768775938.9941406
1768775939001.9531,1366.3003663003662,,0,-1,1768775939.0019531
1768775939009.7656,1368.4981684981683,,0,-1,1768775939.0097656
1768775939017.578,1373.6263736263736,,0,-1,1768775939.017578
1768775939025.3906,1375.8241758241757,,0,-1,1768775939.0253906
1768775939033.2031,1378.7545787545787,,0,-1,1768775939.0332031
1768775939041.0156,1378.7545787545787,,0,-1,1768775939.0410156
1768775939048.828,1378.021978021978,,0,-1,1768775939.048828
1768775939056.6406,1375.8241758241757,,0,-1,1768775939.0566406
1768775939064.4531,1375.091575091575,,0,-1,1768775939.0644531
1768775939072.2656,1375.091575091575,,0,-1,1768775939.0722656
1768775939080.078,1373.6263736263736,,0,-1,1768775939.080078
1768775939087.8906,1369.230769230769,,0,-1,1768775939.0878906
1768775939095.7031,1364.8351648351647,,0,-1,1768775939.0957031
1768775939103.5156,1363.3699633699632,,0,-1,1768775939.1035156
1768775939111.328,1364.8351648351647,,0,-1,1768775939.111328
1768775939119.1406,1367.032967032967,,0,-1,1768775939.1191406
1768775939126.9531,1367.7655677655678,,0,-1,1768775939.1269531
1768775939134.7656,1369.230769230769,,0,-1,1768775939.1347656
1768775939142.578,1367.032967032967,,0,-1,1768775939.142578
1768775939150.3906,1364.102564102564,,0,-1,1768775939.1503906
1768775939158.2031,1359.7069597069597,,0,-1,1768775939.1582031
1768775939166.0156,1357.5091575091574,,0,-1,1768775939.1660156
1768775939173.828,1361.1721611721612,,0,-1,1768775939.173828
1768775939181.6406,1364.8351648351647,,0,-1,1768775939.1816406
1768775939189.4531,1369.230769230769,,1,1,1768775939.1894531
1768775939197.2656,1374.3589743589744,,1,1,1768775939.1972656
1768775939205.078,1382.4175824175825,,1,1,1768775939.205078
1768775939212.8906,1391.941391941392,,1,1,1768775939.2128906
1768775939220.7031,1402.9304029304028,,1,1,1768775939.2207031
1768775939228.5156,1415.3846153846152,,1,1,1768775939.2285156
1768775939236.328,1427.8388278388277,,1,1,1768775939.236328
1768775939244.1406,1438.8278388278388,,1,1,1768775939.2441406
1768775939251.9531,1450.5494505494505,,1,1,1768775939.2519531
1768775939259.7656,1461.5384615384614,,1,1,1768775939.2597656
1768775939267.578,1471.7948717948716,,1,1,1768775939.267578
1768775939275.3906,1480.5860805860805,,1,1,1768775939.2753906
1768775939283.2031,1486.4468864468863,,1,1,1768775939.2832031
1768775939291.0156,1490.8424908424906,,1,1,1768775939.2910156
1768775939298.828,1492.3076923076922,,1,1,1768775939.298828
1768775939306.6406,1494.5054945054944,,1,1,1768775939.3066406
1768775939314.4531,1495.970695970696,,1,1,1768775939.3144531
1768775939322.2656,1498.168498168498,,1,1,1768775939.3222656
1768775939330.078,1501.098901098901,,1,1,1768775939.330078
1768775939337.8906,1504.0293040293038,,1,1,1768775939.3378906
1768775939345.7031,1505.4945054945051,,1,1,1768775939.3457031
1768775939353.5156,1506.227106227106,,1,1,1768775939.3535156
1768775939361.328,1508.4249084249084,,1,1,1768775939.361328
1768775939369.1406,1509.89010989011,,1,1,1768775939.3691406
1768775939376.9531,1512.8205128205127,,1,1,1768775939.3769531
1768775939384.7656,1511.3553113553112,,1,1,1768775939.3847656
1768775939392.578,1509.1575091575091,,1,1,1768775939.392578
1768775939400.3906,1508.4249084249084,,1,1,1768775939.4003906
1768775939408.2031,1511.3553113553112,,1,1,1768775939.4082031
1768775939416.0156,1515.018315018315,,1,1,1768775939.4160156
1768775939423.828,1520.14652014652,,1,1,1768775939.423828
1768775939431.6406,1523.8095238095236,,1,1,1768775939.4316406
1768775939439.4531,1523.8095238095236,,1,1,1768775939.4394531
1768775939447.2656,1520.8791208791208,,1,1,1768775939.4472656
1768775939455.078,1514.2857142857142,,1,1,1768775939.455078
1768775939462.8906,1504.7619047619046,,1,1,1768775939.4628906
1768775939470.7031,1494.5054945054944,,1,1,1768775939.4707031
1768775939478.5156,1483.5164835164835,,1,1,1768775939.4785156
1768775939486.328,1473.260073260073,,1,1,1768775939.486328
1768775939494.1406,1463.003663003663,,1,1,1768775939.4941406
1768775939501.9531,1452.014652014652,,1,1,1768775939.5019531
1768775939509.7656,1443.956043956044,,1,1,1768775939.5097656
1768775939517.578,1440.29304029304,,1,1,1768775939.517578
1768775939525.3906,1440.29304029304,,1,1,1768775939.5253906
1768775939533.2031,1442.4908424908424,,1,1,1768775939.5332031
1768775939541.0156,1447.6190476190477,,1,1,1768775939.5410156
1768775939548.828,1454.9450549450548,,1,1,1768775939.548828
1768775939556.6406,1459.3406593406592,,1,1,1768775939.5566406
1768775939564.4531,1458.6080586080584,,1,1,1768775939.5644531
1768775939572.2656,1456.4102564102564,,1,1,1768775939.5722656
1768775939580.078,1452.7472527472526,,1,1,1768775939.580078
1768775939587.8906,1451.2820512820513,,1,1,1768775939.5878906
1768775939595.7031,1452.7472527472526,,1,1,1768775939.5957031
1768775939603.5156,1454.212454212454,,1,1,1768775939.6035156
1768775939611.328,1452.014652014652,,1,1,1768775939.611328
1768775939619.1406,1446.8864468864467,,1,1,1768775939.6191406
1768775939626.9531,1441.7582417582416,,1,1,1768775939.6269531
1768775939634.7656,1439.5604395604394,,1,1,1768775939.6347656
1768775939642.578,1432.9670329670328,,1,1,1768775939.642578
1768775939650.3906,1424.175824175824,,1,1,1768775939.6503906
1768775939658.2031,1416.117216117216,,1,1,1768775939.6582031
1768775939666.0156,1412.4542124542124,,1,1,1768775939.6660156
1768775939673.828,1409.5238095238094,,1,1,1768775939.673828
1768775939681.6406,1407.3260073260071,,1,1,1768775939.6816406
1768775939689.4531,1404.3956043956043,,1,1,1768775939.6894531
1768775939697.2656,1402.197802197802,,1,1,1768775939.6972656
1768775939705.078,1396.3369963369962,,1,1,1768775939.705078
1768775939712.8906,1387.5457875457876,,1,1,1768775939.7128906
1768775939720.7031,1380.2197802197802,,1,1,1768775939.7207031
1768775939728.5156,1370.6959706959706,,1,1,1768775939.7285156
1768775939736.328,1364.8351648351647,,1,1,1768775939.736328
1768775939744.1406,1361.1721611721612,,1,1,1768775939.7441406
1768775939751.9531,1364.102564102564,,1,1,1768775939.7519531
1768775939759.7656,1363.3699633699632,,1,1,1768775939.7597656
1768775939767.578,1366.3003663003662,,1,1,1768775939.767578
1768775939775.3906,1365.5677655677655,,1,1,1768775939.7753906
1768775939783.2031,1365.5677655677655,,1,1,1768775939.7832031
1768775939791.0156,1367.7655677655678,,1,1,1768775939.7910156
1768775939798.828,1369.9633699633698,,1,1,1768775939.798828
1768775939806.6406,1367.032967032967,,1,1,1768775939.8066406
1768775939814.4531,1367.7655677655678,,1,1,1768775939.8144531
1768775939822.2656,1367.032967032967,,1,1,1768775939.8222656
1768775939830.078,1364.102564102564,,1,1,1768775939.830078
1768775939837.8906,1364.102564102564,,1,1,1768775939.8378906
1768775939845.7031,1364.8351648351647,,1,1,1768775939.8457031
1768775939853.5156,1361.904761904762,,1,1,1768775939.8535156
1768775939861.328,1356.043956043956,,1,1,1768775939.861328
1768775939869.1406,1351.6483516483515,,1,1,1768775939.8691406
1768775939876.9531,1350.9157509157508,,1,1,1768775939.8769531
1768775939884.7656,1345.7875457875457,,1,1,1768775939.8847656
1768775939892.578,1342.857142857143,,1,1,1768775939.892578
1768775939900.3906,1341.3919413919414,,1,1,1768775939.9003906
1768775939908.2031,1336.263736263736,,1,1,1768775939.9082031
1768775939916.0156,1334.7985347985348,,1,1,1768775939.9160156
1768775939923.828,1336.263736263736,,1,1,1768775939.923828
1768775939931.6406,1340.6593406593406,,1,1,1768775939.9316406
1768775939939.4531,1340.6593406593406,,1,1,1768775939.9394531
1768775939947.2656,1342.124542124542,,1,1,1768775939.9472656
1768775939955.078,1345.054945054945,,1,1,1768775939.955078
1768775939962.8906,1345.054945054945,,1,1,1768775939.9628906
1768775939970.7031,1340.6593406593406,,1,1,1768775939.9707031
1768775939978.5156,1337.7289377289376,,1,1,1768775939.9785156
1768775939986.328,1339.194139194139,,1,1,1768775939.986328
1768775939994.1406,1340.6593406593406,,1,1,1768775939.9941406
1768775940001.9531,1347.2527472527472,,1,1,1768775940.0019531
1768775940009.7656,1347.2527472527472,,1,1,1768775940.0097656
1768775940017.578,1344.3223443223442,,1,1,1768775940.017578
1768775940025.3906,1344.3223443223442,,1,1,1768775940.0253906
1768775940033.2031,1346.5201465201465,,1,1,1768775940.0332031
1768775940041.0156,1345.7875457875457,,1,1,1768775940.0410156
1768775940048.828,1343.5897435897434,,1,1,1768775940.048828
1768775940056.6406,1345.054945054945,,1,1,1768775940.0566406
1768775940064.4531,1344.3223443223442,,1,1,1768775940.0644531
1768775940072.2656,1350.9157509157508,,1,1,1768775940.0722656
1768775940080.078,1348.7179487179487,,1,1,1768775940.080078
1768775940087.8906,1351.6483516483515,,1,1,1768775940.0878906
1768775940095.7031,1351.6483516483515,,1,1,1768775940.0957031
1768775940103.5156,1349.4505494505493,,1,1,1768775940.1035156
1768775940111.328,1351.6483516483515,,1,1,1768775940.111328
1768775940119.1406,1346.5201465201465,,1,1,1768775940.1191406
1768775940126.9531,1342.857142857143,,1,1,1768775940.1269531
1768775940134.7656,1338.4615384615383,,1,1,1768775940.1347656
1768775940142.578,1335.5311355311355,,1,1,1768775940.142578
1768775940150.3906,1337.7289377289376,,1,1,1768775940.1503906
1768775940158.2031,1335.5311355311355,,1,1,1768775940.1582031
1768775940166.0156,1336.263736263736,,1,1,1768775940.1660156
1768775940173.828,1340.6593406593406,,1,1,1768775940.173828
1768775940181.6406,1339.194139194139,,1,1,1768775940.1816406
1768775940189.4531,1338.4615384615383,,1,1,1768775940.1894531
1768775940197.2656,1345.7875457875457,,1,1,1768775940.1972656
1768775940205.078,1348.7179487179487,,1,1,1768775940.205078
1768775940212.8906,1361.904761904762,,1,1,1768775940.2128906
1768775940220.7031,1372.8937728937728,,1,1,1768775940.2207031
1768775940228.5156,1387.5457875457876,,1,1,1768775940.2285156
1768775940236.328,1405.8608058608058,,1,1,1768775940.236328
1768775940244.1406,1418.3150183150185,,1,1,1768775940.2441406
1768775940251.9531,1429.3040293040292,,1,1,1768775940.2519531
1768775940259.7656,1438.095238095238,,1,1,1768775940.2597656
1768775940267.578,1439.5604395604394,,1,1,1768775940.267578
1768775940275.3906,1443.956043956044,,1,1,1768775940.2753906
1768775940283.2031,1448.3516483516482,,1,1,1768775940.2832031
1768775940291.0156,1449.084249084249,,1,1,1768775940.2910156
1768775940298.828,1456.4102564102564,,1,1,1768775940.298828
1768775940306.6406,1463.7362637362637,,1,1,1768775940.3066406
1768775940314.4531,1471.062271062271,,1,1,1768775940.3144531
1768775940322.2656,1475.4578754578754,,1,1,1768775940.3222656
1768775940330.078,1473.260073260073,,1,1,1768775940.330078
1768775940337.8906,1471.7948717948716,,1,1,1768775940.3378906
1768775940345.7031,1466.6666666666663,,1,1,1768775940.3457031
1768775940353.5156,1462.2710622710622,,1,1,1768775940.3535156
1768775940361.328,1455.6776556776556,,1,1,1768775940.361328
1768775940369.1406,1457.142857142857,,1,1,1768775940.3691406
1768775940376.9531,1454.212454212454,,1,1,1768775940.3769531
1768775940384.7656,1457.875457875458,,1,1,1768775940.3847656
1768775940392.578,1457.142857142857,,1,1,1768775940.392578
1768775940400.3906,1465.9340659340658,,1,1,1768775940.4003906
1768775940408.2031,1467.3992673992673,,1,1,1768775940.4082031
1768775940416.0156,1469.5970695970695,,1,1,1768775940.4160156
1768775940423.828,1465.9340659340658,,1,1,1768775940.423828
1768775940431.6406,1460.805860805861,,1,1,1768775940.4316406
1768775940439.4531,1458.6080586080584,,1,1,1768775940.4394531
1768775940447.2656,1452.7472527472526,,1,1,1768775940.4472656
1768775940455.078,1452.014652014652,,1,1,1768775940.455078
1768775940462.8906,1446.8864468864467,,1,1,1768775940.4628906
1768775940470.7031,1445.4212454212454,,1,1,1768775940.4707031
1768775940478.5156,1440.29304029304,,1,1,1768775940.4785156
1768775940486.328,1441.0256410256409,,1,1,1768775940.486328
1768775940494.1406,1435.8974358974358,,1,1,1768775940.4941406
1768775940501.9531,1434.4322344322345,,1,1,1768775940.5019531
1768775940509.7656,1427.8388278388277,,1,1,1768775940.5097656
1768775940517.578,1429.3040293040292,,1,1,1768775940.517578
1768775940525.3906,1427.106227106227,,1,1,1768775940.5253906
1768775940533.2031,1426.3736263736262,,1,1,1768775940.5332031
1768775940541.0156,1427.8388278388277,,1,1,1768775940.5410156
1768775940548.828,1428.5714285714284,,1,1,1768775940.548828
1768775940556.6406,1429.3040293040292,,1,1,1768775940.5566406
1768775940564.4531,1425.6410256410256,,1,1,1768775940.5644531
1768775940572.2656,1428.5714285714284,,1,1,1768775940.5722656
1768775940580.078,1427.8388278388277,,1,1,1768775940.580078
1768775940587.8906,1432.2344322344322,,1,1,1768775940.5878906
1768775940595.7031,1429.3040293040292,,1,1,1768775940.5957031
1768775940603.5156,1430.7692307692307,,1,1,1768775940.6035156
1768775940611.328,1429.3040293040292,,1,1,1768775940.611328
1768775940619.1406,1433.6996336996335,,1,1,1768775940.6191406
1768775940626.9531,1430.7692307692307,,1,1,1768775940.6269531
1768775940634.7656,1432.2344322344322,,1,1,1768775940.6347656
1768775940642.578,1432.2344322344322,,1,1,1768775940.642578
1768775940650.3906,1432.2344322344322,,1,1,1768775940.6503906
1768775940658.2031,1435.164835164835,,1,1,1768775940.6582031
1768775940666.0156,1438.095238095238,,1,1,1768775940.6660156
1768775940673.828,1440.29304029304,,1,1,1768775940.673828
1768775940681.6406,1435.8974358974358,,1,1,1768775940.6816406
1768775940689.4531,1426.3736263736262,,1,1,1768775940.6894531
1768775940697.2656,1416.117216117216,,1,1,1768775940.6972656
1768775940705.078,1406.5934065934066,,1,1,1768775940.705078
1768775940712.8906,1400.0,,1,1,1768775940.7128906
1768775940720.7031,1393.4065934065934,,1,1,1768775940.7207031
1768775940728.5156,1391.941391941392,,1,1,1768775940.7285156
1768775940736.328,1389.0109890109889,,1,1,1768775940.736328
1768775940744.1406,1383.150183150183,,1,1,1768775940.7441406
1768775940751.9531,1378.021978021978,,1,1,1768775940.7519531
1768775940759.7656,1369.9633699633698,,1,1,1768775940.7597656
1768775940767.578,1364.8351648351647,,1,1,1768775940.767578
1768775940775.3906,1365.5677655677655,,1,1,1768775940.7753906
1768775940783.2031,1374.3589743589744,,1,1,1768775940.7832031
1768775940791.0156,1378.021978021978,,1,1,1768775940.7910156
1768775940798.828,1375.091575091575,,1,1,1768775940.798828
1768775940806.6406,1367.7655677655678,,1,1,1768775940.8066406
1768775940814.4531,1359.7069597069597,,1,1,1768775940.8144531
1768775940822.2656,1357.5091575091574,,1,1,1768775940.8222656
1768775940830.078,1361.904761904762,,1,1,1768775940.830078
1768775940837.8906,1369.230769230769,,1,1,1768775940.8378906
1768775940845.7031,1373.6263736263736,,1,1,1768775940.8457031
1768775940853.5156,1371.428571428571,,1,1,1768775940.8535156
1768775940861.328,1369.9633699633698,,1,1,1768775940.861328
1768775940869.1406,1362.6373626373625,,1,1,1768775940.8691406
1768775940876.9531,1355.311355311355,,1,1,1768775940.8769531
1768775940884.7656,1355.311355311355,,1,1,1768775940.8847656
1768775940892.578,1350.9157509157508,,1,1,1768775940.892578
1768775940900.3906,1350.18315018315,,1,1,1768775940.9003906
1768775940908.2031,1346.5201465201465,,1,1,1768775940.9082031
1768775940916.0156,1342.124542124542,,1,1,1768775940.9160156
1768775940923.828,1334.7985347985348,,1,1,1768775940.923828
1768775940931.6406,1335.5311355311355,,1,1,1768775940.9316406
1768775940939.4531,1334.065934065934,,1,1,1768775940.9394531
1768775940947.2656,1337.7289377289376,,1,1,1768775940.9472656
1768775940955.078,1337.7289377289376,,1,1,1768775940.955078
1768775940962.8906,1339.194139194139,,1,1,1768775940.9628906
1768775940970.7031,1337.7289377289376,,1,1,1768775940.9707031
1768775940978.5156,1339.194139194139,,1,1,1768775940.9785156
1768775940986.328,1339.92673992674,,1,1,1768775940.986328
1768775940994.1406,1335.5311355311355,,1,1,1768775940.9941406
1768775941001.9531,1335.5311355311355,,1,1,1768775941.0019531
1768775941009.7656,1331.8681318681315,,1,1,1768775941.0097656
1768775941017.578,1331.135531135531,,1,1,1768775941.017578
1768775941025.3906,1325.2747252747251,,1,1,1768775941.0253906
1768775941033.2031,1320.14652014652,,1,1,1768775941.0332031
1768775941041.0156,1315.018315018315,,1,1,1768775941.0410156
1768775941048.828,1309.89010989011,,1,1,1768775941.048828
1768775941056.6406,1308.4249084249084,,1,1,1768775941.0566406
1768775941064.4531,1307.6923076923076,,1,1,1768775941.0644531
1768775941072.2656,1306.227106227106,,1,1,1768775941.0722656
1768775941080.078,1309.1575091575091,,1,1,1768775941.080078
1768775941087.8906,1306.9597069597069,,1,1,1768775941.0878906
1768775941095.7031,1309.1575091575091,,1,1,1768775941.0957031
1768775941103.5156,1307.6923076923076,,1,1,1768775941.1035156
1768775941111.328,1311.3553113553112,,1,1,1768775941.111328
1768775941119.1406,1320.8791208791208,,1,1,1768775941.1191406
1768775941126.9531,1331.8681318681315,,1,1,1768775941.1269531
1768775941134.7656,1344.3223443223442,,1,1,1768775941.1347656
1768775941142.578,1356.7765567765566,,1,1,1768775941.142578
1768775941150.3906,1375.8241758241757,,1,1,1768775941.1503906
1768775941158.2031,1390.4761904761904,,1,1,1768775941.1582031
1768775941166.0156,1406.5934065934066,,1,1,1768775941.1660156
1768775941173.828,1420.5128205128203,,1,1,1768775941.173828
1768775941181.6406,1432.2344322344322,,1,1,1768775941.1816406
1768775941189.4531,1440.29304029304,,1,1,1768775941.1894531
1768775941197.2656,1449.8168498168498,,1,1,1768775941.1972656
1768775941205.078,1452.7472527472526,,1,1,1768775941.205078
1768775941212.8906,1458.6080586080584,,1,1,1768775941.2128906
1768775941220.7031,1462.2710622710622,,1,1,1768775941.2207031
1768775941228.5156,1468.131868131868,,1,1,1768775941.2285156
1768775941236.328,1469.5970695970695,,1,1,1768775941.236328
1768775941244.1406,1465.9340659340658,,1,1,1768775941.2441406
1768775941251.9531,1468.8644688644688,,1,1,1768775941.2519531
1768775941259.7656,1466.6666666666663,,1,1,1768775941.2597656
1768775941267.578,1468.8644688644688,,1,1,1768775941.267578
1768775941275.3906,1463.7362637362637,,1,1,1768775941.2753906
1768775941283.2031,1460.805860805861,,1,1,1768775941.2832031
1768775941291.0156,1457.142857142857,,1,1,1768775941.2910156
1768775941298.828,1453.479853479853,,1,1,1768775941.298828
1768775941306.6406,1451.2820512820513,,1,1,1768775941.3066406
1768775941314.4531,1447.6190476190477,,1,1,1768775941.3144531
1768775941322.2656,1446.153846153846,,1,1,1768775941.3222656
1768775941330.078,1444.688644688645,,1,1,1768775941.330078
1768775941337.8906,1446.8864468864467,,1,1,1768775941.3378906
1768775941345.7031,1446.8864468864467,,1,1,1768775941.3457031
1768775941353.5156,1445.4212454212454,,1,1,1768775941.3535156
1768775941361.328,1435.164835164835,,1,1,1768775941.361328
1768775941369.1406,1424.175824175824,,1,1,1768775941.3691406
1768775941376.9531,1412.4542124542124,,1,1,1768775941.3769531
1768775941384.7656,1404.3956043956043,,1,1,1768775941.3847656
1768775941392.578,1403.6630036630036,,1,1,1768775941.392578
1768775941400.3906,1400.0,,1,1,1768775941.4003906
1768775941408.2031,1396.3369963369962,,1,1,1768775941.4082031
1768775941416.0156,1388.278388278388,,1,1,1768775941.4160156
1768775941423.828,1382.4175824175825,,1,1,1768775941.423828
1768775941431.6406,1373.6263736263736,,1,1,1768775941.4316406
1768775941439.4531,1372.161172161172,,1,1,1768775941.4394531
1768775941447.2656,1369.9633699633698,,1,1,1768775941.4472656
1768775941455.078,1373.6263736263736,,1,1,1768775941.455078
1768775941462.8906,1376.5567765567764,,1,1,1768775941.4628906
1768775941470.7031,1382.4175824175825,,0,-1,1768775941.4707031
1768775941478.5156,1386.080586080586,,0,-1,1768775941.4785156
1768775941486.328,1389.7435897435896,,0,-1,1768775941.486328
1768775941494.1406,1397.8021978021975,,0,-1,1768775941.4941406
1768775941501.9531,1399.2673992673992,,0,-1,1768775941.5019531
1768775941509.7656,1397.8021978021975,,0,-1,1768775941.5097656
1768775941517.578,1399.2673992673992,,0,-1,1768775941.517578
1768775941525.3906,1393.4065934065934,,0,-1,1768775941.5253906
1768775941533.2031,1392.6739926739926,,0,-1,1768775941.5332031
1768775941541.0156,1387.5457875457876,,0,-1,1768775941.5410156
1768775941548.828,1379.4871794871794,,0,-1,1768775941.548828
1768775941556.6406,1372.8937728937728,,0,-1,1768775941.5566406
1768775941564.4531,1367.032967032967,,0,-1,1768775941.5644531
1768775941572.2656,1361.1721611721612,,0,-1,1768775941.5722656
1768775941580.078,1361.904761904762,,0,-1,1768775941.580078
1768775941587.8906,1360.4395604395604,,0,-1,1768775941.5878906
1768775941595.7031,1360.4395604395604,,0,-1,1768775941.5957031
1768775941603.5156,1363.3699633699632,,0,-1,1768775941.6035156
1768775941611.328,1364.8351648351647,,0,-1,1768775941.611328
1768775941619.1406,1366.3003663003662,,0,-1,1768775941.6191406
1768775941626.9531,1368.4981684981683,,0,-1,1768775941.6269531
1768775941634.7656,1361.1721611721612,,0,-1,1768775941.6347656
1768775941642.578,1358.241758241758,,0,-1,1768775941.642578
1768775941650.3906,1354.5787545787546,,0,-1,1768775941.6503906
1768775941658.2031,1347.2527472527472,,0,-1,1768775941.6582031
1768775941666.0156,1343.5897435897434,,0,-1,1768775941.6660156
1768775941673.828,1334.065934065934,,0,-1,1768775941.673828
1768775941681.6406,1322.3443223443223,,0,-1,1768775941.6816406
1768775941689.4531,1318.6813186813183,,0,-1,1768775941.6894531
1768775941697.2656,1317.9487179487178,,0,-1,1768775941.6972656
1768775941705.078,1317.216117216117,,0,-1,1768775941.705078
1768775941712.8906,1320.8791208791208,,0,-1,1768775941.7128906
1768775941720.7031,1326.739926739927,,0,-1,1768775941.7207031
1768775941728.5156,1331.135531135531,,0,-1,1768775941.7285156
1768775941736.328,1336.263736263736,,0,-1,1768775941.736328
1768775941744.1406,1339.92673992674,,0,-1,1768775941.7441406
1768775941751.9531,1338.4615384615383,,0,-1,1768775941.7519531
1768775941759.7656,1334.065934065934,,0,-1,1768775941.7597656
1768775941767.578,1330.4029304029302,,0,-1,1768775941.767578
1768775941775.3906,1327.4725274725274,,0,-1,1768775941.7753906
1768775941783.2031,1323.076923076923,,0,-1,1768775941.7832031
1768775941791.0156,1317.216117216117,,0,-1,1768775941.7910156
1768775941798.828,1313.5531135531137,,0,-1,1768775941.798828
1768775941806.6406,1312.087912087912,,0,-1,1768775941.8066406
1768775941814.4531,1314.2857142857142,,0,-1,1768775941.8144531
1768775941822.2656,1315.018315018315,,0,-1,1768775941.8222656
1768775941830.078,1314.2857142857142,,0,-1,1768775941.830078
1768775941837.8906,1310.6227106227104,,0,-1,1768775941.8378906
1768775941845.7031,1309.1575091575091,,0,-1,1768775941.8457031
1768775941853.5156,1305.4945054945051,,0,-1,1768775941.8535156
1768775941861.328,1301.098901098901,,0,-1,1768775941.861328
1768775941869.1406,1299.6336996336995,,0,-1,1768775941.8691406
1768775941876.9531,1295.2380952380952,,0,-1,1768775941.8769531
1768775941884.7656,1292.3076923076922,,0,-1,1768775941.8847656
1768775941892.578,1290.8424908424909,,0,-1,1768775941.892578
1768775941900.3906,1293.7728937728937,,0,-1,1768775941.9003906
1768775941908.2031,1298.168498168498,,0,-1,1768775941.9082031
1768775941916.0156,1301.8315018315018,,0,-1,1768775941.9160156
1768775941923.828,1301.098901098901,,0,-1,1768775941.923828
1768775941931.6406,1298.9010989010987,,0,-1,1768775941.9316406
1768775941939.4531,1295.970695970696,,0,-1,1768775941.9394531
1768775941947.2656,1293.040293040293,,0,-1,1768775941.9472656
1768775941955.078,1290.8424908424909,,0,-1,1768775941.955078
1768775941962.8906,1287.179487179487,,0,-1,1768775941.9628906
1768775941970.7031,1287.179487179487,,0,-1,1768775941.9707031
1768775941978.5156,1287.9120879120878,,0,-1,1768775941.9785156
1768775941986.328,1288.6446886446886,,0,-1,1768775941.986328
1768775941994.1406,1293.040293040293,,0,-1,1768775941.9941406
1768775942001.9531,1298.9010989010987,,0,-1,1768775942.0019531
1768775942009.7656,1301.8315018315018,,0,-1,1768775942.0097656
1768775942017.578,1301.8315018315018,,0,-1,1768775942.017578
1768775942025.3906,1306.227106227106,,0,-1,1768775942.0253906
1768775942033.2031,1310.6227106227104,,0,-1,1768775942.0332031
1768775942041.0156,1318.6813186813183,,0,-1,1768775942.0410156
1768775942048.828,1331.135531135531,,0,-1,1768775942.048828
1768775942056.6406,1345.054945054945,,0,-1,1768775942.0566406
1768775942064.4531,1361.1721611721612,,0,-1,1768775942.0644531
1768775942072.2656,1378.021978021978,,0,-1,1768775942.0722656
1768775942080.078,1393.4065934065934,,0,-1,1768775942.080078
1768775942087.8906,1405.8608058608058,,0,-1,1768775942.0878906
1768775942095.7031,1415.3846153846152,,0,-1,1768775942.0957031
1768775942103.5156,1421.245421245421,,0,-1,1768775942.1035156
1768775942111.328,1424.175824175824,,0,-1,1768775942.111328
1768775942119.1406,1424.9084249084249,,0,-1,1768775942.1191406
1768775942126.9531,1423.4432234432234,,0,-1,1768775942.1269531
1768775942134.7656,1421.245421245421,,0,-1,1768775942.1347656
1768775942142.578,1418.3150183150185,,0,-1,1768775942.142578
1768775942150.3906,1420.5128205128203,,0,-1,1768775942.1503906
1768775942158.2031,1420.5128205128203,,0,-1,1768775942.1582031
1768775942166.0156,1420.5128205128203,,0,-1,1768775942.1660156
1768775942173.828,1420.5128205128203,,0,-1,1768775942.173828
1768775942181.6406,1419.7802197802198,,0,-1,1768775942.1816406
1768775942189.4531,1417.5824175824175,,0,-1,1768775942.1894531
1768775942197.2656,1414.6520146520145,,0,-1,1768775942.1972656
1768775942205.078,1413.9194139194135,,0,-1,1768775942.205078
1768775942212.8906,1418.3150183150185,,0,-1,1768775942.2128906
1768775942220.7031,1424.9084249084249,,0,-1,1768775942.2207031
1768775942228.5156,1431.5018315018317,,0,-1,1768775942.2285156
1768775942236.328,1438.095238095238,,0,-1,1768775942.236328
1768775942244.1406,1443.956043956044,,0,-1,1768775942.2441406
1768775942251.9531,1446.8864468864467,,0,-1,1768775942.2519531
1768775942259.7656,1446.8864468864467,,0,-1,1768775942.2597656
1768775942267.578,1443.956043956044,,0,-1,1768775942.267578
1768775942275.3906,1438.8278388278388,,0,-1,1768775942.2753906
1768775942283.2031,1434.4322344322345,,0,-1,1768775942.2832031
1768775942291.0156,1430.03663003663,,0,-1,1768775942.2910156
1768775942298.828,1427.8388278388277,,0,-1,1768775942.298828
1768775942306.6406,1427.106227106227,,0,-1,1768775942.3066406
1768775942314.4531,1428.5714285714284,,0,-1,1768775942.3144531
1768775942322.2656,1429.3040293040292,,0,-1,1768775942.3222656
1768775942330.078,1429.3040293040292,,0,-1,1768775942.330078
1768775942337.8906,1429.3040293040292,,0,-1,1768775942.3378906
1768775942345.7031,1428.5714285714284,,0,-1,1768775942.3457031
1768775942353.5156,1423.4432234432234,,0,-1,1768775942.3535156
1768775942361.328,1416.8498168498168,,0,-1,1768775942.361328
1768775942369.1406,1408.058608058608,,0,-1,1768775942.3691406
1768775942376.9531,1401.4652014652013,,0,-1,1768775942.3769531
1768775942384.7656,1399.2673992673992,,0,-1,1768775942.3847656
1768775942392.578,1394.8717948717947,,0,-1,1768775942.392578
1768775942400.3906,1388.278388278388,,0,-1,1768775942.4003906
1768775942408.2031,1382.4175824175825,,0,-1,1768775942.4082031
1768775942416.0156,1375.091575091575,,0,-1,1768775942.4160156
1768775942423.828,1369.9633699633698,,0,-1,1768775942.423828
1768775942431.6406,1366.3003663003662,,0,-1,1768775942.4316406
1768775942439.4531,1364.102564102564,,0,-1,1768775942.4394531
1768775942447.2656,1365.5677655677655,,0,-1,1768775942.4472656
1768775942455.078,1369.230769230769,,0,-1,1768775942.455078
1768775942462.8906,1371.428571428571,,0,-1,1768775942.4628906
1768775942470.7031,1375.091575091575,,0,-1,1768775942.4707031
1768775942478.5156,1379.4871794871794,,0,-1,1768775942.4785156
1768775942486.328,1383.8827838827838,,0,-1,1768775942.486328
1768775942494.1406,1386.8131868131868,,0,-1,1768775942.4941406
1768775942501.9531,1387.5457875457876,,0,-1,1768775942.5019531
1768775942509.7656,1386.080586080586,,0,-1,1768775942.5097656
1768775942517.578,1383.8827838827838,,0,-1,1768775942.517578
1768775942525.3906,1378.7545787545787,,0,-1,1768775942.5253906
1768775942533.2031,1375.091575091575,,0,-1,1768775942.5332031
1768775942541.0156,1370.6959706959706,,0,-1,1768775942.5410156
1768775942548.828,1366.3003663003662,,0,-1,1768775942.548828
1768775942556.6406,1362.6373626373625,,0,-1,1768775942.5566406
1768775942564.4531,1356.7765567765566,,0,-1,1768775942.5644531
1768775942572.2656,1353.113553113553,,0,-1,1768775942.5722656
1768775942580.078,1347.985347985348,,0,-1,1768775942.580078
1768775942587.8906,1343.5897435897434,,0,-1,1768775942.5878906
1768775942595.7031,1339.194139194139,,0,-1,1768775942.5957031
1768775942603.5156,1336.263736263736,,0,-1,1768775942.6035156
1768775942611.328,1333.3333333333333,,0,-1,1768775942.611328
1768775942619.1406,1331.135531135531,,0,-1,1768775942.6191406
1768775942626.9531,1331.8681318681315,,0,-1,1768775942.6269531
1768775942634.7656,1335.5311355311355,,0,-1,1768775942.6347656
1768775942642.578,1340.6593406593406,,0,-1,1768775942.642578
1768775942650.3906,1346.5201465201465,,0,-1,1768775942.6503906
1768775942658.2031,1351.6483516483515,,0,-1,1768775942.6582031
1768775942666.0156,1353.8461538461538,,0,-1,1768775942.6660156
1768775942673.828,1356.043956043956,,0,-1,1768775942.673828
1768775942681.6406,1356.7765567765566,,0,-1,1768775942.6816406
1768775942689.4531,1358.241758241758,,0,-1,1768775942.6894531
1768775942697.2656,1358.241758241758,,0,-1,1768775942.6972656
1768775942705.078,1361.904761904762,,0,-1,1768775942.705078
1768775942712.8906,1359.7069597069597,,0,-1,1768775942.7128906
1768775942720.7031,1353.113553113553,,0,-1,1768775942.7207031
1768775942728.5156,1345.7875457875457,,0,-1,1768775942.7285156
1768775942736.328,1339.92673992674,,0,-1,1768775942.736328
1768775942744.1406,1337.7289377289376,,0,-1,1768775942.7441406
1768775942751.9531,1335.5311355311355,,0,-1,1768775942.7519531
1768775942759.7656,1337.7289377289376,,0,-1,1768775942.7597656
1768775942767.578,1337.7289377289376,,0,-1,1768775942.767578
1768775942775.3906,1336.9963369963368,,0,-1,1768775942.7753906
1768775942783.2031,1334.065934065934,,0,-1,1768775942.7832031
1768775942791.0156,1331.135531135531,,0,-1,1768775942.7910156
1768775942798.828,1326.007326007326,,0,-1,1768775942.798828
1768775942806.6406,1323.8095238095236,,0,-1,1768775942.8066406
1768775942814.4531,1322.3443223443223,,0,-1,1768775942.8144531
1768775942822.2656,1321.6117216117216,,0,-1,1768775942.8222656
1768775942830.078,1320.14652014652,,0,-1,1768775942.830078
1768775942837.8906,1318.6813186813183,,0,-1,1768775942.8378906
1768775942845.7031,1315.7509157509155,,0,-1,1768775942.8457031
1768775942853.5156,1309.89010989011,,0,-1,1768775942.8535156
1768775942861.328,1301.8315018315018,,0,-1,1768775942.861328
1768775942869.1406,1294.5054945054944,,0,-1,1768775942.8691406
1768775942876.9531,1292.3076923076922,,0,-1,1768775942.8769531
1768775942884.7656,1289.3772893772891,,0,-1,1768775942.8847656
1768775942892.578,1287.9120879120878,,0,-1,1768775942.892578
1768775942900.3906,1290.8424908424909,,0,-1,1768775942.9003906
1768775942908.2031,1298.168498168498,,0,-1,1768775942.9082031
1768775942916.0156,1308.4249084249084,,0,-1,1768775942.9160156
1768775942923.828,1320.8791208791208,,0,-1,1768775942.923828
1768775942931.6406,1333.3333333333333,,0,-1,1768775942.9316406
1768775942939.4531,1343.5897435897434,,0,-1,1768775942.9394531
1768775942947.2656,1350.18315018315,,0,-1,1768775942.9472656
1768775942955.078,1360.4395604395604,,0,-1,1768775942.955078
1768775942962.8906,1370.6959706959706,,0,-1,1768775942.9628906
1768775942970.7031,1380.2197802197802,,0,-1,1768775942.9707031
1768775942978.5156,1391.941391941392,,0,-1,1768775942.9785156
1768775942986.328,1403.6630036630036,,0,-1,1768775942.986328
1768775942994.1406,1412.4542124542124,,0,-1,1768775942.9941406
1768775943001.9531,1419.047619047619,,0,-1,1768775943.0019531
1768775943009.7656,1423.4432234432234,,0,-1,1768775943.0097656
1768775943017.578,1423.4432234432234,,0,-1,1768775943.017578
1768775943025.3906,1421.9780219780218,,0,-1,1768775943.0253906
1768775943033.2031,1424.9084249084249,,0,-1,1768775943.0332031
1768775943041.0156,1427.8388278388277,,0,-1,1768775943.0410156
1768775943048.828,1430.7692307692307,,0,-1,1768775943.048828
1768775943056.6406,1429.3040293040292,,0,-1,1768775943.0566406
1768775943064.4531,1426.3736263736262,,0,-1,1768775943.0644531
1768775943072.2656,1423.4432234432234,,0,-1,1768775943.0722656
1768775943080.078,1423.4432234432234,,0,-1,1768775943.080078
1768775943087.8906,1423.4432234432234,,0,-1,1768775943.0878906
1768775943095.7031,1419.7802197802198,,0,-1,1768775943.0957031
1768775943103.5156,1416.117216117216,,0,-1,1768775943.1035156
1768775943111.328,1410.2564102564102,,0,-1,1768775943.111328
1768775943119.1406,1408.7912087912086,,0,-1,1768775943.1191406
1768775943126.9531,1408.058608058608,,0,-1,1768775943.1269531
1768775943134.7656,1407.3260073260071,,0,-1,1768775943.1347656
1768775943142.578,1409.5238095238094,,0,-1,1768775943.142578
1768775943150.3906,1413.1868131868132,,0,-1,1768775943.1503906
1768775943158.2031,1417.5824175824175,,0,-1,1768775943.1582031
1768775943166.0156,1422.7106227106226,,0,-1,1768775943.1660156
1768775943173.828,1427.8388278388277,,0,-1,1768775943.173828
1768775943181.6406,1432.2344322344322,,0,-1,1768775943.1816406
1768775943189.4531,1436.6300366300366,,0,-1,1768775943.1894531
1768775943197.2656,1440.29304029304,,0,-1,1768775943.1972656
1768775943205.078,1443.2234432234432,,0,-1,1768775943.205078
1768775943212.8906,1442.4908424908424,,0,-1,1768775943.2128906
1768775943220.7031,1440.29304029304,,0,-1,1768775943.2207031
1768775943228.5156,1436.6300366300366,,0,-1,1768775943.2285156
1768775943236.328,1431.5018315018317,,0,-1,1768775943.236328
1768775943244.1406,1426.3736263736262,,0,-1,1768775943.2441406
1768775943251.9531,1422.7106227106226,,0,-1,1768775943.2519531
1768775943259.7656,1419.047619047619,,0,-1,1768775943.2597656
1768775943267.578,1411.7216117216117,,0,-1,1768775943.267578
1768775943275.3906,1403.6630036630036,,0,-1,1768775943.2753906
1768775943283.2031,1392.6739926739926,,0,-1,1768775943.2832031
1768775943291.0156,1384.6153846153843,,0,-1,1768775943.2910156
1768775943298.828,1379.4871794871794,,0,-1,1768775943.298828
1768775943306.6406,1376.5567765567764,,0,-1,1768775943.3066406
1768775943314.4531,1376.5567765567764,,0,-1,1768775943.3144531
1768775943322.2656,1380.952380952381,,0,-1,1768775943.3222656
1768775943330.078,1385.3479853479853,,0,-1,1768775943.330078
1768775943337.8906,1388.278388278388,,0,-1,1768775943.3378906
1768775943345.7031,1392.6739926739926,,0,-1,1768775943.3457031
1768775943353.5156,1400.0,,0,-1,1768775943.3535156
1768775943361.328,1405.128205128205,,0,-1,1768775943.361328
1768775943369.1406,1406.5934065934066,,0,-1,1768775943.3691406
1768775943376.9531,1405.8608058608058,,0,-1,1768775943.3769531
1768775943384.7656,1405.128205128205,,0,-1,1768775943.3847656
1768775943392.578,1406.5934065934066,,0,-1,1768775943.392578
1768775943400.3906,1403.6630036630036,,0,-1,1768775943.4003906
1768775943408.2031,1399.2673992673992,,0,-1,1768775943.4082031
1768775943416.0156,1394.139194139194,,0,-1,1768775943.4160156
1768775943423.828,1389.7435897435896,,0,-1,1768775943.423828
1768775943431.6406,1381.6849816849815,,0,-1,1768775943.4316406
1768775943439.4531,1372.161172161172,,0,-1,1768775943.4394531
1768775943447.2656,1360.4395604395604,,0,-1,1768775943.4472656
1768775943455.078,1352.3809523809523,,0,-1,1768775943.455078
1768775943462.8906,1347.985347985348,,0,-1,1768775943.4628906
1768775943470.7031,1344.3223443223442,,0,-1,1768775943.4707031
1768775943478.5156,1341.3919413919414,,0,-1,1768775943.4785156
1768775943486.328,1339.194139194139,,0,-1,1768775943.486328
1768775943494.1406,1336.263736263736,,0,-1,1768775943.4941406
1768775943501.9531,1329.6703296703297,,0,-1,1768775943.5019531
1768775943509.7656,1327.4725274725274,,0,-1,1768775943.5097656
1768775943517.578,1326.739926739927,,0,-1,1768775943.517578
1768775943525.3906,1326.739926739927,,0,-1,1768775943.5253906
1768775943533.2031,1323.8095238095236,,0,-1,1768775943.5332031
1768775943541.0156,1320.8791208791208,,0,-1,1768775943.5410156
1768775943548.828,1325.2747252747251,,0,-1,1768775943.548828
1768775943556.6406,1331.135531135531,,0,-1,1768775943.5566406
1768775943564.4531,1336.263736263736,,0,-1,1768775943.5644531
1768775943572.2656,1345.054945054945,,0,-1,1768775943.5722656
1768775943580.078,1348.7179487179487,,0,-1,1768775943.580078
1768775943587.8906,1354.5787545787546,,0,-1,1768775943.5878906
1768775943595.7031,1361.904761904762,,0,-1,1768775943.5957031
1768775943603.5156,1364.102564102564,,0,-1,1768775943.6035156
1768775943611.328,1367.7655677655678,,0,-1,1768775943.611328
1768775943619.1406,1367.032967032967,,0,-1,1768775943.6191406
1768775943626.9531,1361.904761904762,,0,-1,1768775943.6269531
1768775943634.7656,1357.5091575091574,,0,-1,1768775943.6347656
1768775943642.578,1353.113553113553,,0,-1,1768775943.642578
1768775943650.3906,1343.5897435897434,,0,-1,1768775943.6503906
1768775943658.2031,1337.7289377289376,,0,-1,1768775943.6582031
1768775943666.0156,1328.2051282051282,,0,-1,1768775943.6660156
1768775943673.828,1318.6813186813183,,0,-1,1768775943.673828
1768775943681.6406,1317.9487179487178,,0,-1,1768775943.6816406
1768775943689.4531,1318.6813186813183,,0,-1,1768775943.6894531
1768775943697.2656,1318.6813186813183,,0,-1,1768775943.6972656
1768775943705.078,1317.216117216117,,0,-1,1768775943.705078
1768775943712.8906,1316.4835164835165,,0,-1,1768775943.7128906
1768775943720.7031,1315.018315018315,,0,-1,1768775943.7207031
1768775943728.5156,1312.087912087912,,0,-1,1768775943.7285156
1768775943736.328,1306.227106227106,,0,-1,1768775943.736328
1768775943744.1406,1304.0293040293038,,0,-1,1768775943.7441406
1768775943751.9531,1300.3663003663005,,0,-1,1768775943.7519531
1768775943759.7656,1298.9010989010987,,0,-1,1768775943.7597656
1768775943767.578,1290.8424908424909,,0,-1,1768775943.767578
1768775943775.3906,1286.4468864468863,,0,-1,1768775943.7753906
1768775943783.2031,1287.9120879120878,,0,-1,1768775943.7832031
1768775943791.0156,1288.6446886446886,,0,-1,1768775943.7910156
1768775943798.828,1289.3772893772891,,0,-1,1768775943.798828
1768775943806.6406,1290.10989010989,,1,2,1768775943.8066406
1768775943814.4531,1296.7032967032967,,1,2,1768775943.8144531
1768775943822.2656,1302.5641025641023,,1,2,1768775943.8222656
1768775943830.078,1309.1575091575091,,1,2,1768775943.830078
1768775943837.8906,1315.018315018315,,1,2,1768775943.8378906
1768775943845.7031,1320.8791208791208,,1,2,1768775943.8457031
1768775943853.5156,1323.8095238095236,,1,2,1768775943.8535156
1768775943861.328,1325.2747252747251,,1,2,1768775943.861328
1768775943869.1406,1319.4139194139193,,1,2,1768775943.8691406
1768775943876.9531,1313.5531135531137,,1,2,1768775943.8769531
1768775943884.7656,1312.8205128205127,,1,2,1768775943.8847656
1768775943892.578,1312.8205128205127,,1,2,1768775943.892578
1768775943900.3906,1317.9487179487178,,1,2,1768775943.9003906
1768775943908.2031,1325.2747252747251,,1,2,1768775943.9082031
1768775943916.0156,1334.065934065934,,1,2,1768775943.9160156
1768775943923.828,1343.5897435897434,,1,2,1768775943.923828
1768775943931.6406,1356.7765567765566,,1,2,1768775943.9316406
1768775943939.4531,1369.230769230769,,1,2,1768775943.9394531
1768775943947.2656,1380.2197802197802,,1,2,1768775943.9472656
1768775943955.078,1389.0109890109889,,1,2,1768775943.955078
1768775943962.8906,1397.069597069597,,1,2,1768775943.9628906
1768775943970.7031,1405.8608058608058,,1,2,1768775943.9707031
1768775943978.5156,1408.7912087912086,,1,2,1768775943.9785156
1768775943986.328,1405.128205128205,,1,2,1768775943.986328
1768775943994.1406,1401.4652014652013,,1,2,1768775943.9941406
1768775944001.9531,1402.9304029304028,,1,2,1768775944.0019531
1768775944009.7656,1405.8608058608058,,1,2,1768775944.0097656
1768775944017.578,1406.5934065934066,,1,2,1768775944.017578
1768775944025.3906,1404.3956043956043,,1,2,1768775944.0253906
1768775944033.2031,1400.0,,1,2,1768775944.0332031
1768775944041.0156,1393.4065934065934,,1,2,1768775944.0410156
1768775944048.828,1390.4761904761904,,1,2,1768775944.048828
1768775944056.6406,1389.0109890109889,,1,2,1768775944.0566406
1768775944064.4531,1387.5457875457876,,1,2,1768775944.0644531
1768775944072.2656,1386.080586080586,,1,2,1768775944.0722656
1768775944080.078,1389.7435897435896,,1,2,1768775944.080078
1768775944087.8906,1396.3369963369962,,1,2,1768775944.0878906
1768775944095.7031,1400.7326007326003,,1,2,1768775944.0957031
1768775944103.5156,1401.4652014652013,,1,2,1768775944.1035156
1768775944111.328,1402.197802197802,,1,2,1768775944.111328
1768775944119.1406,1403.6630036630036,,1,2,1768775944.1191406
1768775944126.9531,1404.3956043956043,,1,2,1768775944.1269531
1768775944134.7656,1408.058608058608,,1,2,1768775944.1347656
1768775944142.578,1409.5238095238094,,1,2,1768775944.142578
1768775944150.3906,1406.5934065934066,,1,2,1768775944.1503906
1768775944158.2031,1400.7326007326003,,1,2,1768775944.1582031
1768775944166.0156,1397.069597069597,,1,2,1768775944.1660156
1768775944173.828,1396.3369963369962,,1,2,1768775944.173828
1768775944181.6406,1394.8717948717947,,1,2,1768775944.1816406
1768775944189.4531,1391.2087912087911,,1,2,1768775944.1894531
1768775944197.2656,1383.8827838827838,,1,2,1768775944.1972656
1768775944205.078,1382.4175824175825,,1,2,1768775944.205078
1768775944212.8906,1386.080586080586,,1,2,1768775944.2128906
1768775944220.7031,1386.8131868131868,,1,2,1768775944.2207031
1768775944228.5156,1385.3479853479853,,1,2,1768775944.2285156
1768775944236.328,1383.150183150183,,1,2,1768775944.236328
1768775944244.1406,1388.278388278388,,1,2,1768775944.2441406
1768775944251.9531,1395.6043956043954,,1,2,1768775944.2519531
1768775944259.7656,1398.5347985347985,,1,2,1768775944.2597656
1768775944267.578,1398.5347985347985,,1,2,1768775944.267578
1768775944275.3906,1394.139194139194,,1,2,1768775944.2753906
1768775944283.2031,1388.278388278388,,1,2,1768775944.2832031
1768775944291.0156,1382.4175824175825,,1,2,1768775944.2910156
1768775944298.828,1377.2893772893772,,1,2,1768775944.298828
1768775944306.6406,1369.9633699633698,,1,2,1768775944.3066406
1768775944314.4531,1363.3699633699632,,1,2,1768775944.3144531
1768775944322.2656,1360.4395604395604,,1,2,1768775944.3222656
1768775944330.078,1360.4395604395604,,1,2,1768775944.330078
1768775944337.8906,1361.1721611721612,,1,2,1768775944.3378906
1768775944345.7031,1362.6373626373625,,1,2,1768775944.3457031
1768775944353.5156,1364.102564102564,,1,2,1768775944.3535156
1768775944361.328,1362.6373626373625,,1,2,1768775944.361328
1768775944369.1406,1363.3699633699632,,1,2,1768775944.3691406
1768775944376.9531,1362.6373626373625,,1,2,1768775944.3769531
1768775944384.7656,1360.4395604395604,,1,2,1768775944.3847656
1768775944392.578,1356.7765567765566,,1,2,1768775944.392578
1768775944400.3906,1355.311355311355,,1,2,1768775944.4003906
1768775944408.2031,1350.9157509157508,,1,2,1768775944.4082031
1768775944416.0156,1345.7875457875457,,1,2,1768775944.4160156
1768775944423.828,1345.7875457875457,,1,2,1768775944.423828
1768775944431.6406,1346.5201465201465,,1,2,1768775944.4316406
1768775944439.4531,1342.857142857143,,1,2,1768775944.4394531
1768775944447.2656,1339.194139194139,,1,2,1768775944.4472656
1768775944455.078,1338.4615384615383,,1,2,1768775944.455078
1768775944462.8906,1333.3333333333333,,1,2,1768775944.4628906
1768775944470.7031,1328.937728937729,,1,2,1768775944.4707031
1768775944478.5156,1326.739926739927,,1,2,1768775944.4785156
1768775944486.328,1320.8791208791208,,1,2,1768775944.486328
1768775944494.1406,1312.8205128205127,,1,2,1768775944.4941406
1768775944501.9531,1306.9597069597069,,1,2,1768775944.5019531
1768775944509.7656,1307.6923076923076,,1,2,1768775944.5097656
1768775944517.578,1309.89010989011,,1,2,1768775944.517578
1768775944525.3906,1312.087912087912,,1,2,1768775944.5253906
1768775944533.2031,1313.5531135531137,,1,2,1768775944.5332031
1768775944541.0156,1318.6813186813183,,1,2,1768775944.5410156
1768775944548.828,1323.076923076923,,1,2,1768775944.548828
1768775944556.6406,1324.5421245421244,,1,2,1768775944.5566406
1768775944564.4531,1321.6117216117216,,1,2,1768775944.5644531
1768775944572.2656,1324.5421245421244,,1,2,1768775944.5722656
1768775944580.078,1323.8095238095236,,1,2,1768775944.580078
1768775944587.8906,1320.8791208791208,,1,2,1768775944.5878906
1768775944595.7031,1314.2857142857142,,1,2,1768775944.5957031
1768775944603.5156,1315.018315018315,,1,2,1768775944.6035156
1768775944611.328,1314.2857142857142,,1,2,1768775944.611328
1768775944619.1406,1312.087912087912,,1,2,1768775944.6191406
1768775944626.9531,1311.3553113553112,,1,2,1768775944.6269531
1768775944634.7656,1314.2857142857142,,1,2,1768775944.6347656
1768775944642.578,1312.8205128205127,,1,2,1768775944.642578
1768775944650.3906,1306.227106227106,,1,2,1768775944.6503906
1768775944658.2031,1305.4945054945051,,1,2,1768775944.6582031
1768775944666.0156,1309.1575091575091,,1,2,1768775944.6660156
1768775944673.828,1310.6227106227104,,1,2,1768775944.673828
1768775944681.6406,1311.3553113553112,,1,2,1768775944.6816406
1768775944689.4531,1313.5531135531137,,1,2,1768775944.6894531
1768775944697.2656,1314.2857142857142,,1,2,1768775944.6972656
1768775944705.078,1315.7509157509155,,1,2,1768775944.705078
1768775944712.8906,1318.6813186813183,,1,2,1768775944.7128906
1768775944720.7031,1315.018315018315,,1,2,1768775944.7207031
1768775944728.5156,1312.8205128205127,,1,2,1768775944.7285156
1768775944736.328,1312.8205128205127,,1,2,1768775944.736328
1768775944744.1406,1309.89010989011,,1,2,1768775944.7441406
1768775944751.9531,1306.227106227106,,1,2,1768775944.7519531
1768775944759.7656,1305.4945054945051,,1,2,1768775944.7597656
1768775944767.578,1306.227106227106,,1,2,1768775944.767578
1768775944775.3906,1301.8315018315018,,1,2,1768775944.7753906
1768775944783.2031,1301.098901098901,,1,2,1768775944.7832031
1768775944791.0156,1298.9010989010987,,1,2,1768775944.7910156
1768775944798.828,1298.9010989010987,,1,2,1768775944.798828
1768775944806.6406,1298.168498168498,,1,2,1768775944.8066406
1768775944814.4531,1298.9010989010987,,1,2,1768775944.8144531
1768775944822.2656,1299.6336996336995,,1,2,1768775944.8222656
1768775944830.078,1300.3663003663005,,1,2,1768775944.830078
1768775944837.8906,1303.2967032967033,,1,2,1768775944.8378906
1768775944845.7031,1307.6923076923076,,1,2,1768775944.8457031
1768775944853.5156,1310.6227106227104,,1,2,1768775944.8535156
1768775944861.328,1317.216117216117,,1,2,1768775944.861328
1768775944869.1406,1329.6703296703297,,1,2,1768775944.8691406
1768775944876.9531,1344.3223443223442,,1,2,1768775944.8769531
1768775944884.7656,1356.043956043956,,1,2,1768775944.8847656
1768775944892.578,1361.904761904762,,1,2,1768775944.892578
1768775944900.3906,1372.161172161172,,1,2,1768775944.9003906
1768775944908.2031,1376.5567765567764,,1,2,1768775944.9082031
1768775944916.0156,1378.7545787545787,,1,2,1768775944.9160156
1768775944923.828,1380.952380952381,,1,2,1768775944.923828
1768775944931.6406,1378.021978021978,,1,2,1768775944.9316406
1768775944939.4531,1380.2197802197802,,1,2,1768775944.9394531
1768775944947.2656,1387.5457875457876,,1,2,1768775944.9472656
1768775944955.078,1387.5457875457876,,1,2,1768775944.955078
1768775944962.8906,1386.080586080586,,1,2,1768775944.9628906
1768775944970.7031,1387.5457875457876,,1,2,1768775944.9707031
1768775944978.5156,1385.3479853479853,,1,2,1768775944.9785156
1768775944986.328,1380.2197802197802,,1,2,1768775944.986328
1768775944994.1406,1379.4871794871794,,1,2,1768775944.9941406
1768775945001.9531,1378.7545787545787,,1,2,1768775945.0019531
1768775945009.7656,1375.091575091575,,1,2,1768775945.0097656
1768775945017.578,1375.091575091575,,1,2,1768775945.017578
1768775945025.3906,1370.6959706959706,,1,2,1768775945.0253906
1768775945033.2031,1364.8351648351647,,1,2,1768775945.0332031
1768775945041.0156,1362.6373626373625,,1,2,1768775945.0410156
1768775945048.828,1358.974358974359,,1,2,1768775945.048828
1768775945056.6406,1355.311355311355,,1,2,1768775945.0566406
1768775945064.4531,1354.5787545787546,,1,2,1768775945.0644531
1768775945072.2656,1352.3809523809523,,1,2,1768775945.0722656
1768775945080.078,1352.3809523809523,,1,2,1768775945.080078
1768775945087.8906,1359.7069597069597,,1,2,1768775945.0878906
1768775945095.7031,1365.5677655677655,,1,2,1768775945.0957031
1768775945103.5156,1366.3003663003662,,1,2,1768775945.1035156
1768775945111.328,1368.4981684981683,,1,2,1768775945.111328
1768775945119.1406,1367.032967032967,,1,2,1768775945.1191406
1768775945126.9531,1366.3003663003662,,1,2,1768775945.1269531
1768775945134.7656,1366.3003663003662,,1,2,1768775945.1347656
1768775945142.578,1356.043956043956,,1,2,1768775945.142578
1768775945150.3906,1351.6483516483515,,1,2,1768775945.1503906
1768775945158.2031,1349.4505494505493,,1,2,1768775945.1582031
1768775945166.0156,1345.054945054945,,1,2,1768775945.1660156
1768775945173.828,1347.985347985348,,1,2,1768775945.173828
1768775945181.6406,1350.18315018315,,1,2,1768775945.1816406
1768775945189.4531,1350.18315018315,,1,2,1768775945.1894531
1768775945197.2656,1351.6483516483515,,1,2,1768775945.1972656
1768775945205.078,1348.7179487179487,,1,2,1768775945.205078
1768775945212.8906,1349.4505494505493,,1,2,1768775945.2128906
1768775945220.7031,1345.054945054945,,1,2,1768775945.2207031
1768775945228.5156,1346.5201465201465,,1,2,1768775945.2285156
1768775945236.328,1343.5897435897434,,1,2,1768775945.236328
1768775945244.1406,1344.3223443223442,,1,2,1768775945.2441406
1768775945251.9531,1346.5201465201465,,1,2,1768775945.2519531
1768775945259.7656,1343.5897435897434,,1,2,1768775945.2597656
1768775945267.578,1343.5897435897434,,1,2,1768775945.267578
1768775945275.3906,1341.3919413919414,,1,2,1768775945.2753906
1768775945283.2031,1336.263736263736,,1,2,1768775945.2832031
1768775945291.0156,1334.7985347985348,,1,2,1768775945.2910156
1768775945298.828,1334.7985347985348,,1,2,1768775945.298828
1768775945306.6406,1331.8681318681315,,1,2,1768775945.3066406
1768775945314.4531,1336.263736263736,,1,2,1768775945.3144531
1768775945322.2656,1334.7985347985348,,1,2,1768775945.3222656
1768775945330.078,1334.7985347985348,,1,2,1768775945.330078
1768775945337.8906,1336.9963369963368,,1,2,1768775945.3378906
1768775945345.7031,1340.6593406593406,,1,2,1768775945.3457031
1768775945353.5156,1348.7179487179487,,1,2,1768775945.3535156
1768775945361.328,1349.4505494505493,,1,2,1768775945.361328
1768775945369.1406,1351.6483516483515,,1,2,1768775945.3691406
1768775945376.9531,1355.311355311355,,1,2,1768775945.3769531
1768775945384.7656,1356.7765567765566,,1,2,1768775945.3847656
1768775945392.578,1360.4395604395604,,1,2,1768775945.392578
1768775945400.3906,1361.904761904762,,1,2,1768775945.4003906
1768775945408.2031,1359.7069597069597,,1,2,1768775945.4082031
1768775945416.0156,1360.4395604395604,,1,2,1768775945.4160156
1768775945423.828,1351.6483516483515,,1,2,1768775945.423828
1768775945431.6406,1341.3919413919414,,1,2,1768775945.4316406
1768775945439.4531,1331.8681318681315,,1,2,1768775945.4394531
1768775945447.2656,1324.5421245421244,,1,2,1768775945.4472656
1768775945455.078,1317.9487179487178,,1,2,1768775945.455078
1768775945462.8906,1317.216117216117,,1,2,1768775945.4628906
1768775945470.7031,1314.2857142857142,,1,2,1768775945.4707031
1768775945478.5156,1319.4139194139193,,1,2,1768775945.4785156
1768775945486.328,1318.6813186813183,,1,2,1768775945.486328
1768775945494.1406,1323.076923076923,,1,2,1768775945.4941406
1768775945501.9531,1321.6117216117216,,1,2,1768775945.5019531
1768775945509.7656,1324.5421245421244,,1,2,1768775945.5097656
1768775945517.578,1326.007326007326,,1,2,1768775945.517578
1768775945525.3906,1330.4029304029302,,1,2,1768775945.5253906
1768775945533.2031,1334.7985347985348,,1,2,1768775945.5332031
1768775945541.0156,1339.194139194139,,1,2,1768775945.5410156
1768775945548.828,1339.194139194139,,1,2,1768775945.548828
1768775945556.6406,1339.92673992674,,1,2,1768775945.5566406
1768775945564.4531,1337.7289377289376,,1,2,1768775945.5644531
1768775945572.2656,1328.937728937729,,1,2,1768775945.5722656
1768775945580.078,1322.3443223443223,,1,2,1768775945.580078
1768775945587.8906,1312.8205128205127,,1,2,1768775945.5878906
1768775945595.7031,1302.5641025641023,,1,2,1768775945.5957031
1768775945603.5156,1295.970695970696,,1,2,1768775945.6035156
1768775945611.328,1287.179487179487,,1,2,1768775945.611328
1768775945619.1406,1283.5164835164835,,1,2,1768775945.6191406
1768775945626.9531,1279.8534798534797,,1,2,1768775945.6269531
1768775945634.7656,1279.120879120879,,1,2,1768775945.6347656
1768775945642.578,1271.7948717948716,,1,2,1768775945.642578
1768775945650.3906,1265.2014652014652,,1,2,1768775945.6503906
1768775945658.2031,1261.5384615384614,,1,2,1768775945.6582031
1768775945666.0156,1257.875457875458,,1,2,1768775945.6660156
1768775945673.828,1261.5384615384614,,1,2,1768775945.673828
1768775945681.6406,1264.4688644688645,,1,2,1768775945.6816406
1768775945689.4531,1274.7252747252746,,1,2,1768775945.6894531
1768775945697.2656,1279.120879120879,,1,2,1768775945.6972656
1768775945705.078,1284.9816849816848,,1,2,1768775945.705078
1768775945712.8906,1282.7838827838827,,1,2,1768775945.7128906
1768775945720.7031,1286.4468864468863,,1,2,1768775945.7207031
1768775945728.5156,1285.7142857142856,,1,2,1768775945.7285156
1768775945736.328,1293.040293040293,,1,2,1768775945.736328
1768775945744.1406,1296.7032967032967,,1,2,1768775945.7441406
1768775945751.9531,1299.6336996336995,,1,2,1768775945.7519531
1768775945759.7656,1301.8315018315018,,1,2,1768775945.7597656
1768775945767.578,1307.6923076923076,,1,2,1768775945.767578
1768775945775.3906,1320.14652014652,,1,2,1768775945.7753906
1768775945783.2031,1329.6703296703297,,1,2,1768775945.7832031
1768775945791.0156,1342.124542124542,,1,2,1768775945.7910156
1768775945798.828,1355.311355311355,,1,2,1768775945.798828
1768775945806.6406,1366.3003663003662,,1,2,1768775945.8066406
1768775945814.4531,1376.5567765567764,,1,2,1768775945.8144531
1768775945822.2656,1381.6849816849815,,1,2,1768775945.8222656
1768775945830.078,1391.2087912087911,,1,2,1768775945.830078
1768775945837.8906,1394.139194139194,,1,2,1768775945.8378906
1768775945845.7031,1394.8717948717947,,1,2,1768775945.8457031
1768775945853.5156,1397.8021978021975,,1,2,1768775945.8535156
1768775945861.328,1397.8021978021975,,1,2,1768775945.861328
1768775945869.1406,1394.139194139194,,1,2,1768775945.8691406
1768775945876.9531,1392.6739926739926,,1,2,1768775945.8769531
1768775945884.7656,1385.3479853479853,,1,2,1768775945.8847656
1768775945892.578,1380.952380952381,,1,2,1768775945.892578
1768775945900.3906,1373.6263736263736,,1,2,1768775945.9003906
1768775945908.2031,1367.032967032967,,1,2,1768775945.9082031
1768775945916.0156,1360.4395604395604,,1,2,1768775945.9160156
1768775945923.828,1353.8461538461538,,1,2,1768775945.923828
1768775945931.6406,1343.5897435897434,,1,2,1768775945.9316406
1768775945939.4531,1336.263736263736,,1,2,1768775945.9394531
1768775945947.2656,1331.135531135531,,1,2,1768775945.9472656
1768775945955.078,1327.4725274725274,,1,2,1768775945.955078
1768775945962.8906,1324.5421245421244,,1,2,1768775945.9628906
1768775945970.7031,1328.937728937729,,1,2,1768775945.9707031
1768775945978.5156,1328.937728937729,,1,2,1768775945.9785156
1768775945986.328,1334.065934065934,,1,2,1768775945.986328
1768775945994.1406,1334.7985347985348,,1,2,1768775945.9941406
1768775946001.9531,1339.92673992674,,1,2,1768775946.0019531
1768775946009.7656,1343.5897435897434,,1,2,1768775946.0097656
1768775946017.578,1350.18315018315,,1,2,1768775946.017578
1768775946025.3906,1356.043956043956,,1,2,1768775946.0253906
1768775946033.2031,1360.4395604395604,,1,2,1768775946.0332031
1768775946041.0156,1365.5677655677655,,1,2,1768775946.0410156
1768775946048.828,1364.102564102564,,1,2,1768775946.048828
1768775946056.6406,1364.8351648351647,,1,2,1768775946.0566406
1768775946064.4531,1363.3699633699632,,1,2,1768775946.0644531
1768775946072.2656,1361.904761904762,,1,2,1768775946.0722656
1768775946080.078,1364.102564102564,,1,2,1768775946.080078
1768775946087.8906,1359.7069597069597,,1,2,1768775946.0878906
1768775946095.7031,1354.5787545787546,,1,2,1768775946.0957031
1768775946103.5156,1357.5091575091574,,1,2,1768775946.1035156
1768775946111.328,1358.241758241758,,1,2,1768775946.111328
1768775946119.1406,1365.5677655677655,,1,2,1768775946.1191406
1768775946126.9531,1370.6959706959706,,1,2,1768775946.1269531
1768775946134.7656,1370.6959706959706,,1,2,1768775946.1347656
1768775946142.578,1367.7655677655678,,1,2,1768775946.142578
1768775946150.3906,1361.1721611721612,,0,-1,1768775946.1503906
1768775946158.2031,1358.974358974359,,0,-1,1768775946.1582031
1768775946166.0156,1358.241758241758,,0,-1,1768775946.1660156
1768775946173.828,1353.113553113553,,0,-1,1768775946.173828
1768775946181.6406,1347.2527472527472,,0,-1,1768775946.1816406
1768775946189.4531,1345.054945054945,,0,-1,1768775946.1894531
1768775946197.2656,1340.6593406593406,,0,-1,1768775946.1972656
1768775946205.078,1335.5311355311355,,0,-1,1768775946.205078
1768775946212.8906,1335.5311355311355,,0,-1,1768775946.2128906
1768775946220.7031,1334.7985347985348,,0,-1,1768775946.2207031
1768775946228.5156,1334.065934065934,,0,-1,1768775946.2285156
1768775946236.328,1334.7985347985348,,0,-1,1768775946.236328
1768775946244.1406,1335.5311355311355,,0,-1,1768775946.2441406
1768775946251.9531,1331.8681318681315,,0,-1,1768775946.2519531
1768775946259.7656,1328.2051282051282,,0,-1,1768775946.2597656
1768775946267.578,1328.2051282051282,,0,-1,1768775946.267578
1768775946275.3906,1328.2051282051282,,0,-1,1768775946.2753906
1768775946283.2031,1327.4725274725274,,0,-1,1768775946.2832031
1768775946291.0156,1327.4725274725274,,0,-1,1768775946.2910156
1768775946298.828,1327.4725274725274,,0,-1,1768775946.298828
1768775946306.6406,1323.076923076923,,0,-1,1768775946.3066406
1768775946314.4531,1315.018315018315,,0,-1,1768775946.3144531
1768775946322.2656,1308.4249084249084,,0,-1,1768775946.3222656
1768775946330.078,1301.8315018315018,,0,-1,1768775946.330078
1768775946337.8906,1294.5054945054944,,0,-1,1768775946.3378906
1768775946345.7031,1295.2380952380952,,0,-1,1768775946.3457031
1768775946353.5156,1298.9010989010987,,0,-1,1768775946.3535156
1768775946361.328,1302.5641025641023,,0,-1,1768775946.361328
1768775946369.1406,1313.5531135531137,,0,-1,1768775946.3691406
1768775946376.9531,1325.2747252747251,,0,-1,1768775946.3769531
1768775946384.7656,1331.8681318681315,,0,-1,1768775946.3847656
1768775946392.578,1338.4615384615383,,0,-1,1768775946.392578
1768775946400.3906,1340.6593406593406,,0,-1,1768775946.4003906
1768775946408.2031,1337.7289377289376,,0,-1,1768775946.4082031
1768775946416.0156,1336.9963369963368,,0,-1,1768775946.4160156
1768775946423.828,1334.065934065934,,0,-1,1768775946.423828
1768775946431.6406,1328.937728937729,,0,-1,1768775946.4316406
1768775946439.4531,1323.8095238095236,,0,-1,1768775946.4394531
1768775946447.2656,1323.076923076923,,0,-1,1768775946.4472656
1768775946455.078,1320.14652014652,,0,-1,1768775946.455078
1768775946462.8906,1320.8791208791208,,0,-1,1768775946.4628906
1768775946470.7031,1324.5421245421244,,0,-1,1768775946.4707031
1768775946478.5156,1329.6703296703297,,0,-1,1768775946.4785156
1768775946486.328,1329.6703296703297,,0,-1,1768775946.486328
1768775946494.1406,1326.739926739927,,0,-1,1768775946.4941406
1768775946501.9531,1324.5421245421244,,0,-1,1768775946.5019531
1768775946509.7656,1320.8791208791208,,0,-1,1768775946.5097656
1768775946517.578,1313.5531135531137,,0,-1,1768775946.517578
1768775946525.3906,1309.89010989011,,0,-1,1768775946.5253906
1768775946533.2031,1307.6923076923076,,0,-1,1768775946.5332031
1768775946541.0156,1304.7619047619046,,0,-1,1768775946.5410156
1768775946548.828,1301.098901098901,,0,-1,1768775946.548828
1768775946556.6406,1299.6336996336995,,0,-1,1768775946.5566406
1768775946564.4531,1299.6336996336995,,0,-1,1768775946.5644531
1768775946572.2656,1294.5054945054944,,0,-1,1768775946.5722656
1768775946580.078,1292.3076923076922,,0,-1,1768775946.580078
1768775946587.8906,1294.5054945054944,,0,-1,1768775946.5878906
1768775946595.7031,1302.5641025641023,,0,-1,1768775946.5957031
1768775946603.5156,1306.227106227106,,0,-1,1768775946.6035156
1768775946611.328,1311.3553113553112,,0,-1,1768775946.611328
1768775946619.1406,1312.087912087912,,0,-1,1768775946.6191406
1768775946626.9531,1312.8205128205127,,0,-1,1768775946.6269531
1768775946634.7656,1313.5531135531137,,0,-1,1768775946.6347656
1768775946642.578,1316.4835164835165,,0,-1,1768775946.642578
1768775946650.3906,1320.8791208791208,,0,-1,1768775946.6503906
1768775946658.2031,1328.2051282051282,,0,-1,1768775946.6582031
1768775946666.0156,1339.194139194139,,0,-1,1768775946.6660156
1768775946673.828,1349.4505494505493,,0,-1,1768775946.673828
1768775946681.6406,1356.7765567765566,,0,-1,1768775946.6816406
1768775946689.4531,1365.5677655677655,,0,-1,1768775946.6894531
1768775946697.2656,1373.6263736263736,,0,-1,1768775946.6972656
1768775946705.078,1380.952380952381,,0,-1,1768775946.705078
1768775946712.8906,1384.6153846153843,,0,-1,1768775946.7128906
1768775946720.7031,1389.7435897435896,,0,-1,1768775946.7207031
1768775946728.5156,1393.4065934065934,,0,-1,1768775946.7285156
1768775946736.328,1396.3369963369962,,0,-1,1768775946.736328
1768775946744.1406,1397.069597069597,,0,-1,1768775946.7441406
1768775946751.9531,1394.139194139194,,0,-1,1768775946.7519531
1768775946759.7656,1386.8131868131868,,0,-1,1768775946.7597656
1768775946767.578,1380.952380952381,,0,-1,1768775946.767578
1768775946775.3906,1375.8241758241757,,0,-1,1768775946.7753906
1768775946783.2031,1368.4981684981683,,0,-1,1768775946.7832031
1768775946791.0156,1362.6373626373625,,0,-1,1768775946.7910156
1768775946798.828,1361.904761904762,,0,-1,1768775946.798828
1768775946806.6406,1365.5677655677655,,0,-1,1768775946.8066406
1768775946814.4531,1369.230769230769,,0,-1,1768775946.8144531
1768775946822.2656,1370.6959706959706,,0,-1,1768775946.8222656
1768775946830.078,1371.428571428571,,0,-1,1768775946.830078
1768775946837.8906,1371.428571428571,,0,-1,1768775946.8378906
1768775946845.7031,1372.8937728937728,,0,-1,1768775946.8457031
1768775946853.5156,1375.091575091575,,0,-1,1768775946.8535156
1768775946861.328,1376.5567765567764,,0,-1,1768775946.861328
1768775946869.1406,1372.161172161172,,0,-1,1768775946.8691406
1768775946876.9531,1365.5677655677655,,0,-1,1768775946.8769531
1768775946884.7656,1360.4395604395604,,0,-1,1768775946.8847656
1768775946892.578,1356.043956043956,,0,-1,1768775946.892578
1768775946900.3906,1355.311355311355,,0,-1,1768775946.9003906
1768775946908.2031,1354.5787545787546,,0,-1,1768775946.9082031
1768775946916.0156,1354.5787545787546,,0,-1,1768775946.9160156
1768775946923.828,1358.974358974359,,0,-1,1768775946.923828
1768775946931.6406,1365.5677655677655,,0,-1,1768775946.9316406
1768775946939.4531,1370.6959706959706,,0,-1,1768775946.9394531
1768775946947.2656,1372.8937728937728,,0,-1,1768775946.9472656
1768775946955.078,1375.091575091575,,0,-1,1768775946.955078
1768775946962.8906,1380.952380952381,,0,-1,1768775946.9628906
1768775946970.7031,1385.3479853479853,,0,-1,1768775946.9707031
1768775946978.5156,1384.6153846153843,,0,-1,1768775946.9785156
1768775946986.328,1378.021978021978,,0,-1,1768775946.986328
1768775946994.1406,1372.8937728937728,,0,-1,1768775946.9941406
1768775947001.9531,1367.032967032967,,0,-1,1768775947.0019531
1768775947009.7656,1359.7069597069597,,0,-1,1768775947.0097656
1768775947017.578,1353.8461538461538,,0,-1,1768775947.017578
1768775947025.3906,1349.4505494505493,,0,-1,1768775947.0253906
1768775947033.2031,1345.7875457875457,,0,-1,1768775947.0332031
1768775947041.0156,1342.857142857143,,0,-1,1768775947.0410156
1768775947048.828,1342.124542124542,,0,-1,1768775947.048828
1768775947056.6406,1341.3919413919414,,0,-1,1768775947.0566406
1768775947064.4531,1342.124542124542,,0,-1,1768775947.0644531
1768775947072.2656,1341.3919413919414,,0,-1,1768775947.0722656
1768775947080.078,1342.124542124542,,0,-1,1768775947.080078
1768775947087.8906,1341.3919413919414,,0,-1,1768775947.0878906
1768775947095.7031,1345.054945054945,,0,-1,1768775947.0957031
1768775947103.5156,1349.4505494505493,,0,-1,1768775947.1035156
1768775947111.328,1354.5787545787546,,0,-1,1768775947.111328
1768775947119.1406,1355.311355311355,,0,-1,1768775947.1191406
1768775947126.9531,1352.3809523809523,,0,-1,1768775947.1269531
1768775947134.7656,1350.18315018315,,0,-1,1768775947.1347656
1768775947142.578,1348.7179487179487,,0,-1,1768775947.142578
1768775947150.3906,1350.18315018315,,0,-1,1768775947.1503906
1768775947158.2031,1353.8461538461538,,0,-1,1768775947.1582031
1768775947166.0156,1357.5091575091574,,0,-1,1768775947.1660156
1768775947173.828,1358.241758241758,,0,-1,1768775947.173828
1768775947181.6406,1357.5091575091574,,0,-1,1768775947.1816406
1768775947189.4531,1355.311355311355,,0,-1,1768775947.1894531
1768775947197.2656,1350.9157509157508,,0,-1,1768775947.1972656
1768775947205.078,1345.7875457875457,,0,-1,1768775947.205078
1768775947212.8906,1339.194139194139,,0,-1,1768775947.2128906
1768775947220.7031,1333.3333333333333,,0,-1,1768775947.2207031
1768775947228.5156,1331.8681318681315,,0,-1,1768775947.2285156
1768775947236.328,1330.4029304029302,,0,-1,1768775947.236328
1768775947244.1406,1328.937728937729,,0,-1,1768775947.2441406
1768775947251.9531,1327.4725274725274,,0,-1,1768775947.2519531
1768775947259.7656,1330.4029304029302,,0,-1,1768775947.2597656
1768775947267.578,1335.5311355311355,,0,-1,1768775947.267578
1768775947275.3906,1336.9963369963368,,0,-1,1768775947.2753906
1768775947283.2031,1338.4615384615383,,0,-1,1768775947.2832031
1768775947291.0156,1341.3919413919414,,0,-1,1768775947.2910156
1768775947298.828,1342.857142857143,,0,-1,1768775947.298828
1768775947306.6406,1346.5201465201465,,0,-1,1768775947.3066406
1768775947314.4531,1345.054945054945,,0,-1,1768775947.3144531
1768775947322.2656,1339.92673992674,,0,-1,1768775947.3222656
1768775947330.078,1331.8681318681315,,0,-1,1768775947.330078
1768775947337.8906,1324.5421245421244,,0,-1,1768775947.3378906
1768775947345.7031,1316.4835164835165,,0,-1,1768775947.3457031
1768775947353.5156,1309.1575091575091,,0,-1,1768775947.3535156
1768775947361.328,1304.0293040293038,,0,-1,1768775947.361328
1768775947369.1406,1302.5641025641023,,0,-1,1768775947.3691406
1768775947376.9531,1304.0293040293038,,0,-1,1768775947.3769531
1768775947384.7656,1306.227106227106,,0,-1,1768775947.3847656
1768775947392.578,1308.4249084249084,,0,-1,1768775947.392578
1768775947400.3906,1305.4945054945051,,0,-1,1768775947.4003906
1768775947408.2031,1303.2967032967033,,0,-1,1768775947.4082031
1768775947416.0156,1303.2967032967033,,0,-1,1768775947.4160156
1768775947423.828,1303.2967032967033,,0,-1,1768775947.423828
1768775947431.6406,1304.0293040293038,,0,-1,1768775947.4316406
1768775947439.4531,1308.4249084249084,,0,-1,1768775947.4394531
1768775947447.2656,1316.4835164835165,,0,-1,1768775947.4472656
1768775947455.078,1321.6117216117216,,0,-1,1768775947.455078
1768775947462.8906,1320.8791208791208,,0,-1,1768775947.4628906
1768775947470.7031,1318.6813186813183,,0,-1,1768775947.4707031
1768775947478.5156,1314.2857142857142,,0,-1,1768775947.4785156
1768775947486.328,1314.2857142857142,,0,-1,1768775947.486328
1768775947494.1406,1318.6813186813183,,0,-1,1768775947.4941406
1768775947501.9531,1323.8095238095236,,0,-1,1768775947.5019531
1768775947509.7656,1327.4725274725274,,0,-1,1768775947.5097656
1768775947517.578,1331.8681318681315,,0,-1,1768775947.517578
1768775947525.3906,1336.9963369963368,,0,-1,1768775947.5253906
1768775947533.2031,1344.3223443223442,,0,-1,1768775947.5332031
1768775947541.0156,1350.9157509157508,,0,-1,1768775947.5410156
1768775947548.828,1358.241758241758,,0,-1,1768775947.548828
1768775947556.6406,1363.3699633699632,,0,-1,1768775947.5566406
1768775947564.4531,1369.9633699633698,,0,-1,1768775947.5644531
1768775947572.2656,1375.8241758241757,,0,-1,1768775947.5722656
1768775947580.078,1378.7545787545787,,0,-1,1768775947.580078
1768775947587.8906,1382.4175824175825,,0,-1,1768775947.5878906
1768775947595.7031,1385.3479853479853,,0,-1,1768775947.5957031
1768775947603.5156,1386.8131868131868,,0,-1,1768775947.6035156
1768775947611.328,1386.080586080586,,0,-1,1768775947.611328
1768775947619.1406,1386.8131868131868,,0,-1,1768775947.6191406
1768775947626.9531,1388.278388278388,,0,-1,1768775947.6269531
1768775947634.7656,1389.0109890109889,,0,-1,1768775947.6347656
1768775947642.578,1390.4761904761904,,0,-1,1768775947.642578
1768775947650.3906,1393.4065934065934,,0,-1,1768775947.6503906
1768775947658.2031,1394.8717948717947,,0,-1,1768775947.6582031
1768775947666.0156,1396.3369963369962,,0,-1,1768775947.6660156
1768775947673.828,1396.3369963369962,,0,-1,1768775947.673828
1768775947681.6406,1399.2673992673992,,0,-1,1768775947.6816406
1768775947689.4531,1400.7326007326003,,0,-1,1768775947.6894531
1768775947697.2656,1403.6630036630036,,0,-1,1768775947.6972656
1768775947705.078,1404.3956043956043,,0,-1,1768775947.705078
1768775947712.8906,1402.9304029304028,,0,-1,1768775947.7128906
1768775947720.7031,1402.197802197802,,0,-1,1768775947.7207031
1768775947728.5156,1402.9304029304028,,0,-1,1768775947.7285156
1768775947736.328,1402.9304029304028,,0,-1,1768775947.736328
1768775947744.1406,1403.6630036630036,,0,-1,1768775947.7441406
1768775947751.9531,1401.4652014652013,,0,-1,1768775947.7519531
1768775947759.7656,1400.7326007326003,,0,-1,1768775947.7597656
1768775947767.578,1399.2673992673992,,0,-1,1768775947.767578
1768775947775.3906,1400.7326007326003,,0,-1,1768775947.7753906
1768775947783.2031,1402.197802197802,,0,-1,1768775947.7832031
1768775947791.0156,1405.8608058608058,,0,-1,1768775947.7910156
1768775947798.828,1408.058608058608,,0,-1,1768775947.798828
1768775947806.6406,1409.5238095238094,,0,-1,1768775947.8066406
1768775947814.4531,1410.2564102564102,,0,-1,1768775947.8144531
1768775947822.2656,1410.2564102564102,,0,-1,1768775947.8222656
1768775947830.078,1412.4542124542124,,0,-1,1768775947.830078
1768775947837.8906,1416.117216117216,,0,-1,1768775947.8378906
1768775947845.7031,1416.117216117216,,0,-1,1768775947.8457031
1768775947853.5156,1417.5824175824175,,0,-1,1768775947.8535156
1768775947861.328,1416.117216117216,,0,-1,1768775947.861328
1768775947869.1406,1412.4542124542124,,0,-1,1768775947.8691406
1768775947876.9531,1407.3260073260071,,0,-1,1768775947.8769531
1768775947884.7656,1404.3956043956043,,0,-1,1768775947.8847656
1768775947892.578,1402.197802197802,,0,-1,1768775947.892578
1768775947900.3906,1402.197802197802,,0,-1,1768775947.9003906
1768775947908.2031,1401.4652014652013,,0,-1,1768775947.9082031
1768775947916.0156,1401.4652014652013,,0,-1,1768775947.9160156
1768775947923.828,1401.4652014652013,,0,-1,1768775947.923828
1768775947931.6406,1402.197802197802,,0,-1,1768775947.9316406
1768775947939.4531,1402.9304029304028,,0,-1,1768775947.9394531
1768775947947.2656,1405.8608058608058,,0,-1,1768775947.9472656
1768775947955.078,1408.058608058608,,0,-1,1768775947.955078
1768775947962.8906,1407.3260073260071,,0,-1,1768775947.9628906
1768775947970.7031,1402.197802197802,,0,-1,1768775947.9707031
1768775947978.5156,1397.8021978021975,,0,-1,1768775947.9785156
1768775947986.328,1393.4065934065934,,0,-1,1768775947.986328
1768775947994.1406,1391.2087912087911,,0,-1,1768775947.9941406
1768775948001.9531,1387.5457875457876,,0,-1,1768775948.0019531
1768775948009.7656,1380.2197802197802,,0,-1,1768775948.0097656
1768775948017.578,1373.6263736263736,,0,-1,1768775948.017578
1768775948025.3906,1370.6959706959706,,0,-1,1768775948.0253906
1768775948033.2031,1372.8937728937728,,0,-1,1768775948.0332031
1768775948041.0156,1377.2893772893772,,0,-1,1768775948.0410156
1768775948048.828,1378.7545787545787,,0,-1,1768775948.048828
1768775948056.6406,1378.021978021978,,0,-1,1768775948.0566406
1768775948064.4531,1378.7545787545787,,0,-1,1768775948.0644531
1768775948072.2656,1380.952380952381,,0,-1,1768775948.0722656
1768775948080.078,1383.8827838827838,,0,-1,1768775948.080078
1768775948087.8906,1383.150183150183,,0,-1,1768775948.0878906
1768775948095.7031,1380.952380952381,,0,-1,1768775948.0957031
1768775948103.5156,1378.7545787545787,,0,-1,1768775948.1035156
1768775948111.328,1374.3589743589744,,0,-1,1768775948.111328
1768775948119.1406,1369.230769230769,,0,-1,1768775948.1191406
1768775948126.9531,1365.5677655677655,,0,-1,1768775948.1269531
1768775948134.7656,1364.8351648351647,,0,-1,1768775948.1347656
1768775948142.578,1364.8351648351647,,0,-1,1768775948.142578
1768775948150.3906,1363.3699633699632,,0,-1,1768775948.1503906
1768775948158.2031,1361.1721611721612,,0,-1,1768775948.1582031
1768775948166.0156,1356.043956043956,,0,-1,1768775948.1660156
1768775948173.828,1349.4505494505493,,0,-1,1768775948.173828
1768775948181.6406,1342.124542124542,,0,-1,1768775948.1816406
1768775948189.4531,1336.263736263736,,1,3,1768775948.1894531
1768775948197.2656,1331.8681318681315,,1,3,1768775948.1972656
1768775948205.078,1328.2051282051282,,1,3,1768775948.205078
1768775948212.8906,1328.2051282051282,,1,3,1768775948.2128906
1768775948220.7031,1328.937728937729,,1,3,1768775948.2207031
1768775948228.5156,1325.2747252747251,,1,3,1768775948.2285156
1768775948236.328,1321.6117216117216,,1,3,1768775948.236328
1768775948244.1406,1319.4139194139193,,1,3,1768775948.2441406
1768775948251.9531,1315.018315018315,,1,3,1768775948.2519531
1768775948259.7656,1309.89010989011,,1,3,1768775948.2597656
1768775948267.578,1312.8205128205127,,1,3,1768775948.267578
1768775948275.3906,1318.6813186813183,,1,3,1768775948.2753906
1768775948283.2031,1327.4725274725274,,1,3,1768775948.2832031
1768775948291.0156,1335.5311355311355,,1,3,1768775948.2910156
1768775948298.828,1343.5897435897434,,1,3,1768775948.298828
1768775948306.6406,1351.6483516483515,,1,3,1768775948.3066406
1768775948314.4531,1356.7765567765566,,1,3,1768775948.3144531
1768775948322.2656,1356.7765567765566,,1,3,1768775948.3222656
1768775948330.078,1354.5787545787546,,1,3,1768775948.330078
1768775948337.8906,1353.8461538461538,,1,3,1768775948.3378906
1768775948345.7031,1350.18315018315,,1,3,1768775948.3457031
1768775948353.5156,1345.054945054945,,1,3,1768775948.3535156
1768775948361.328,1339.194139194139,,1,3,1768775948.361328
1768775948369.1406,1331.8681318681315,,1,3,1768775948.3691406
1768775948376.9531,1323.8095238095236,,1,3,1768775948.3769531
1768775948384.7656,1316.4835164835165,,1,3,1768775948.3847656
1768775948392.578,1308.4249084249084,,1,3,1768775948.392578
1768775948400.3906,1301.098901098901,,1,3,1768775948.4003906
1768775948408.2031,1293.7728937728937,,1,3,1768775948.4082031
1768775948416.0156,1290.10989010989,,1,3,1768775948.4160156
1768775948423.828,1292.3076923076922,,1,3,1768775948.423828
1768775948431.6406,1295.2380952380952,,1,3,1768775948.4316406
1768775948439.4531,1294.5054945054944,,1,3,1768775948.4394531
1768775948447.2656,1293.7728937728937,,1,3,1768775948.4472656
1768775948455.078,1293.040293040293,,1,3,1768775948.455078
1768775948462.8906,1294.5054945054944,,1,3,1768775948.4628906
1768775948470.7031,1298.9010989010987,,1,3,1768775948.4707031
1768775948478.5156,1305.4945054945051,,1,3,1768775948.4785156
1768775948486.328,1311.3553113553112,,1,3,1768775948.486328
1768775948494.1406,1315.018315018315,,1,3,1768775948.4941406
1768775948501.9531,1320.14652014652,,1,3,1768775948.5019531
1768775948509.7656,1326.007326007326,,1,3,1768775948.5097656
1768775948517.578,1326.739926739927,,1,3,1768775948.517578
1768775948525.3906,1334.065934065934,,1,3,1768775948.5253906
1768775948533.2031,1337.7289377289376,,1,3,1768775948.5332031
1768775948541.0156,1344.3223443223442,,1,3,1768775948.5410156
1768775948548.828,1350.18315018315,,1,3,1768775948.548828
1768775948556.6406,1358.241758241758,,1,3,1768775948.5566406
1768775948564.4531,1367.7655677655678,,1,3,1768775948.5644531
1768775948572.2656,1375.091575091575,,1,3,1768775948.5722656
1768775948580.078,1380.952380952381,,1,3,1768775948.580078
1768775948587.8906,1386.8131868131868,,1,3,1768775948.5878906
1768775948595.7031,1388.278388278388,,1,3,1768775948.5957031
1768775948603.5156,1389.7435897435896,,1,3,1768775948.6035156
1768775948611.328,1390.4761904761904,,1,3,1768775948.611328
1768775948619.1406,1389.0109890109889,,1,3,1768775948.6191406
1768775948626.9531,1389.7435897435896,,1,3,1768775948.6269531
1768775948634.7656,1397.8021978021975,,1,3,1768775948.6347656
1768775948642.578,1409.5238095238094,,1,3,1768775948.642578
1768775948650.3906,1420.5128205128203,,1,3,1768775948.6503906
1768775948658.2031,1427.106227106227,,1,3,1768775948.6582031
1768775948666.0156,1432.9670329670328,,1,3,1768775948.6660156
1768775948673.828,1437.362637362637,,1,3,1768775948.673828
1768775948681.6406,1438.095238095238,,1,3,1768775948.6816406
1768775948689.4531,1432.2344322344322,,1,3,1768775948.6894531
1768775948697.2656,1423.4432234432234,,1,3,1768775948.6972656
1768775948705.078,1410.989010989011,,1,3,1768775948.705078
1768775948712.8906,1399.2673992673992,,1,3,1768775948.7128906
1768775948720.7031,1387.5457875457876,,1,3,1768775948.7207031
1768775948728.5156,1379.4871794871794,,1,3,1768775948.7285156
1768775948736.328,1375.8241758241757,,1,3,1768775948.736328
1768775948744.1406,1373.6263736263736,,1,3,1768775948.7441406
1768775948751.9531,1372.161172161172,,1,3,1768775948.7519531
1768775948759.7656,1375.091575091575,,1,3,1768775948.7597656
1768775948767.578,1380.2197802197802,,1,3,1768775948.767578
1768775948775.3906,1382.4175824175825,,1,3,1768775948.7753906
1768775948783.2031,1390.4761904761904,,1,3,1768775948.7832031
1768775948791.0156,1397.069597069597,,1,3,1768775948.7910156
1768775948798.828,1403.6630036630036,,1,3,1768775948.798828
1768775948806.6406,1413.9194139194135,,1,3,1768775948.8066406
1768775948814.4531,1419.7802197802198,,1,3,1768775948.8144531
1768775948822.2656,1421.9780219780218,,1,3,1768775948.8222656
1768775948830.078,1422.7106227106226,,1,3,1768775948.830078
1768775948837.8906,1421.9780219780218,,1,3,1768775948.8378906
1768775948845.7031,1419.047619047619,,1,3,1768775948.8457031
1768775948853.5156,1418.3150183150185,,1,3,1768775948.8535156
1768775948861.328,1413.1868131868132,,1,3,1768775948.861328
1768775948869.1406,1408.058608058608,,1,3,1768775948.8691406
1768775948876.9531,1403.6630036630036,,1,3,1768775948.8769531
1768775948884.7656,1397.8021978021975,,1,3,1768775948.8847656
1768775948892.578,1391.941391941392,,1,3,1768775948.892578
1768775948900.3906,1391.941391941392,,1,3,1768775948.9003906
1768775948908.2031,1389.7435897435896,,1,3,1768775948.9082031
1768775948916.0156,1386.080586080586,,1,3,1768775948.9160156
1768775948923.828,1384.6153846153843,,1,3,1768775948.923828
1768775948931.6406,1383.8827838827838,,1,3,1768775948.9316406
1768775948939.4531,1379.4871794871794,,1,3,1768775948.9394531
1768775948947.2656,1380.2197802197802,,1,3,1768775948.9472656
1768775948955.078,1379.4871794871794,,1,3,1768775948.955078
1768775948962.8906,1373.6263736263736,,1,3,1768775948.9628906
1768775948970.7031,1367.032967032967,,1,3,1768775948.9707031
1768775948978.5156,1358.241758241758,,1,3,1768775948.9785156
1768775948986.328,1353.8461538461538,,1,3,1768775948.986328
1768775948994.1406,1354.5787545787546,,1,3,1768775948.9941406
1768775949001.9531,1353.8461538461538,,1,3,1768775949.0019531
1768775949009.7656,1362.6373626373625,,1,3,1768775949.0097656
1768775949017.578,1367.7655677655678,,1,3,1768775949.017578
1768775949025.3906,1372.8937728937728,,1,3,1768775949.0253906
1768775949033.2031,1376.5567765567764,,1,3,1768775949.0332031
1768775949041.0156,1376.5567765567764,,1,3,1768775949.0410156
1768775949048.828,1381.6849816849815,,1,3,1768775949.048828
1768775949056.6406,1386.080586080586,,1,3,1768775949.0566406
1768775949064.4531,1387.5457875457876,,1,3,1768775949.0644531
1768775949072.2656,1389.7435897435896,,1,3,1768775949.0722656
1768775949080.078,1389.7435897435896,,1,3,1768775949.080078
1768775949087.8906,1386.080586080586,,1,3,1768775949.0878906
1768775949095.7031,1375.8241758241757,,1,3,1768775949.0957031
1768775949103.5156,1370.6959706959706,,1,3,1768775949.1035156
1768775949111.328,1369.9633699633698,,1,3,1768775949.111328
1768775949119.1406,1367.032967032967,,1,3,1768775949.1191406
1768775949126.9531,1364.102564102564,,1,3,1768775949.1269531
1768775949134.7656,1358.241758241758,,1,3,1768775949.1347656
1768775949142.578,1348.7179487179487,,1,3,1768775949.142578
1768775949150.3906,1345.054945054945,,1,3,1768775949.1503906
1768775949158.2031,1337.7289377289376,,1,3,1768775949.1582031
1768775949166.0156,1333.3333333333333,,1,3,1768775949.1660156
1768775949173.828,1334.7985347985348,,1,3,1768775949.173828
1768775949181.6406,1334.7985347985348,,1,3,1768775949.1816406
1768775949189.4531,1336.263736263736,,1,3,1768775949.1894531
1768775949197.2656,1345.7875457875457,,1,3,1768775949.1972656
1768775949205.078,1351.6483516483515,,1,3,1768775949.205078
1768775949212.8906,1359.7069597069597,,1,3,1768775949.2128906
1768775949220.7031,1369.230769230769,,1,3,1768775949.2207031
1768775949228.5156,1370.6959706959706,,1,3,1768775949.2285156
1768775949236.328,1372.8937728937728,,1,3,1768775949.236328
1768775949244.1406,1366.3003663003662,,1,3,1768775949.2441406
1768775949251.9531,1361.904761904762,,1,3,1768775949.2519531
1768775949259.7656,1356.7765567765566,,1,3,1768775949.2597656
1768775949267.578,1350.9157509157508,,1,3,1768775949.267578
1768775949275.3906,1345.054945054945,,1,3,1768775949.2753906
1768775949283.2031,1338.4615384615383,,1,3,1768775949.2832031
1768775949291.0156,1339.194139194139,,1,3,1768775949.2910156
1768775949298.828,1338.4615384615383,,1,3,1768775949.298828
1768775949306.6406,1342.124542124542,,1,3,1768775949.3066406
1768775949314.4531,1340.6593406593406,,1,3,1768775949.3144531
1768775949322.2656,1339.92673992674,,1,3,1768775949.3222656
1768775949330.078,1337.7289377289376,,1,3,1768775949.330078
1768775949337.8906,1331.135531135531,,1,3,1768775949.3378906
1768775949345.7031,1329.6703296703297,,1,3,1768775949.3457031
1768775949353.5156,1329.6703296703297,,1,3,1768775949.3535156
1768775949361.328,1326.739926739927,,1,3,1768775949.361328
1768775949369.1406,1327.4725274725274,,1,3,1768775949.3691406
1768775949376.9531,1328.937728937729,,1,3,1768775949.3769531
1768775949384.7656,1335.5311355311355,,1,3,1768775949.3847656
1768775949392.578,1342.124542124542,,1,3,1768775949.392578
1768775949400.3906,1346.5201465201465,,1,3,1768775949.4003906
1768775949408.2031,1350.9157509157508,,1,3,1768775949.4082031
1768775949416.0156,1347.2527472527472,,1,3,1768775949.4160156
1768775949423.828,1344.3223443223442,,1,3,1768775949.423828
1768775949431.6406,1339.194139194139,,1,3,1768775949.4316406
1768775949439.4531,1335.5311355311355,,1,3,1768775949.4394531
1768775949447.2656,1329.6703296703297,,1,3,1768775949.4472656
1768775949455.078,1328.937728937729,,1,3,1768775949.455078
1768775949462.8906,1325.2747252747251,,1,3,1768775949.4628906
1768775949470.7031,1328.937728937729,,1,3,1768775949.4707031
1768775949478.5156,1331.135531135531,,1,3,1768775949.4785156
1768775949486.328,1334.065934065934,,1,3,1768775949.486328
1768775949494.1406,1338.4615384615383,,1,3,1768775949.4941406
1768775949501.9531,1342.857142857143,,1,3,1768775949.5019531
1768775949509.7656,1356.7765567765566,,1,3,1768775949.5097656
1768775949517.578,1366.3003663003662,,1,3,1768775949.517578
1768775949525.3906,1380.2197802197802,,1,3,1768775949.5253906
1768775949533.2031,1390.4761904761904,,1,3,1768775949.5332031
1768775949541.0156,1397.069597069597,,1,3,1768775949.5410156
1768775949548.828,1404.3956043956043,,1,3,1768775949.548828
1768775949556.6406,1406.5934065934066,,1,3,1768775949.5566406
1768775949564.4531,1412.4542124542124,,1,3,1768775949.5644531
1768775949572.2656,1413.9194139194135,,1,3,1768775949.5722656
1768775949580.078,1416.8498168498168,,1,3,1768775949.580078
1768775949587.8906,1420.5128205128203,,1,3,1768775949.5878906
1768775949595.7031,1417.5824175824175,,1,3,1768775949.5957031
1768775949603.5156,1421.245421245421,,1,3,1768775949.6035156
1768775949611.328,1421.245421245421,,1,3,1768775949.611328
1768775949619.1406,1424.9084249084249,,1,3,1768775949.6191406
1768775949626.9531,1431.5018315018317,,1,3,1768775949.6269531
1768775949634.7656,1432.2344322344322,,1,3,1768775949.6347656
1768775949642.578,1434.4322344322345,,1,3,1768775949.642578
1768775949650.3906,1435.8974358974358,,1,3,1768775949.6503906
1768775949658.2031,1433.6996336996335,,1,3,1768775949.6582031
1768775949666.0156,1430.7692307692307,,1,3,1768775949.6660156
1768775949673.828,1430.03663003663,,1,3,1768775949.673828
1768775949681.6406,1426.3736263736262,,1,3,1768775949.6816406
1768775949689.4531,1428.5714285714284,,1,3,1768775949.6894531
1768775949697.2656,1428.5714285714284,,1,3,1768775949.6972656
1768775949705.078,1432.2344322344322,,1,3,1768775949.705078
1768775949712.8906,1432.9670329670328,,1,3,1768775949.7128906
1768775949720.7031,1428.5714285714284,,1,3,1768775949.7207031
1768775949728.5156,1426.3736263736262,,1,3,1768775949.7285156
1768775949736.328,1421.9780219780218,,1,3,1768775949.736328
1768775949744.1406,1418.3150183150185,,1,3,1768775949.7441406
1768775949751.9531,1410.989010989011,,1,3,1768775949.7519531
1768775949759.7656,1407.3260073260071,,1,3,1768775949.7597656
1768775949767.578,1398.5347985347985,,1,3,1768775949.767578
1768775949775.3906,1393.4065934065934,,1,3,1768775949.7753906
1768775949783.2031,1386.080586080586,,1,3,1768775949.7832031
1768775949791.0156,1387.5457875457876,,1,3,1768775949.7910156
1768775949798.828,1389.0109890109889,,1,3,1768775949.798828
1768775949806.6406,1394.8717948717947,,1,3,1768775949.8066406
1768775949814.4531,1397.8021978021975,,1,3,1768775949.8144531
1768775949822.2656,1406.5934065934066,,1,3,1768775949.8222656
1768775949830.078,1412.4542124542124,,1,3,1768775949.830078
1768775949837.8906,1423.4432234432234,,1,3,1768775949.8378906
1768775949845.7031,1424.9084249084249,,1,3,1768775949.8457031
1768775949853.5156,1428.5714285714284,,1,3,1768775949.8535156
1768775949861.328,1424.9084249084249,,1,3,1768775949.861328
1768775949869.1406,1424.175824175824,,1,3,1768775949.8691406
1768775949876.9531,1421.245421245421,,1,3,1768775949.8769531
1768775949884.7656,1421.9780219780218,,1,3,1768775949.8847656
1768775949892.578,1421.245421245421,,1,3,1768775949.892578
1768775949900.3906,1422.7106227106226,,1,3,1768775949.9003906
1768775949908.2031,1421.245421245421,,1,3,1768775949.9082031
1768775949916.0156,1417.5824175824175,,1,3,1768775949.9160156
1768775949923.828,1417.5824175824175,,1,3,1768775949.923828
1768775949931.6406,1409.5238095238094,,1,3,1768775949.9316406
1768775949939.4531,1403.6630036630036,,1,3,1768775949.9394531
1768775949947.2656,1394.8717948717947,,1,3,1768775949.9472656
1768775949955.078,1391.941391941392,,1,3,1768775949.955078
1768775949962.8906,1386.8131868131868,,1,3,1768775949.9628906
1768775949970.7031,1386.080586080586,,1,3,1768775949.9707031
1768775949978.5156,1389.7435897435896,,1,3,1768775949.9785156
1768775949986.328,1389.7435897435896,,1,3,1768775949.986328
1768775949994.1406,1390.4761904761904,,1,3,1768775949.9941406
1768775950001.9531,1383.8827838827838,,1,3,1768775950.0019531
1768775950009.7656,1382.4175824175825,,1,3,1768775950.0097656
1768775950017.578,1375.8241758241757,,1,3,1768775950.017578
1768775950025.3906,1370.6959706959706,,1,3,1768775950.0253906
1768775950033.2031,1363.3699633699632,,1,3,1768775950.0332031
1768775950041.0156,1357.5091575091574,,1,3,1768775950.0410156
1768775950048.828,1347.2527472527472,,1,3,1768775950.048828
1768775950056.6406,1341.3919413919414,,1,3,1768775950.0566406
1768775950064.4531,1333.3333333333333,,1,3,1768775950.0644531
1768775950072.2656,1331.135531135531,,1,3,1768775950.0722656
1768775950080.078,1332.6007326007325,,1,3,1768775950.080078
1768775950087.8906,1335.5311355311355,,1,3,1768775950.0878906
1768775950095.7031,1344.3223443223442,,1,3,1768775950.0957031
1768775950103.5156,1350.18315018315,,1,3,1768775950.1035156
1768775950111.328,1358.241758241758,,1,3,1768775950.111328
1768775950119.1406,1367.032967032967,,1,3,1768775950.1191406
1768775950126.9531,1367.032967032967,,1,3,1768775950.1269531
1768775950134.7656,1372.8937728937728,,1,3,1768775950.1347656
1768775950142.578,1375.8241758241757,,1,3,1768775950.142578
1768775950150.3906,1377.2893772893772,,1,3,1768775950.1503906
1768775950158.2031,1383.150183150183,,1,3,1768775950.1582031
1768775950166.0156,1383.150183150183,,1,3,1768775950.1660156
1768775950173.828,1383.150183150183,,1,3,1768775950.173828
1768775950181.6406,1374.3589743589744,,1,3,1768775950.1816406
1768775950189.4531,1369.9633699633698,,1,3,1768775950.1894531
1768775950197.2656,1360.4395604395604,,1,3,1768775950.1972656
1768775950205.078,1356.7765567765566,,1,3,1768775950.205078
1768775950212.8906,1350.9157509157508,,1,3,1768775950.2128906
1768775950220.7031,1347.985347985348,,1,3,1768775950.2207031
1768775950228.5156,1347.2527472527472,,0,-1,1768775950.2285156
1768775950236.328,1350.18315018315,,0,-1,1768775950.236328
1768775950244.1406,1352.3809523809523,,0,-1,1768775950.2441406
1768775950251.9531,1350.9157509157508,,0,-1,1768775950.2519531
1768775950259.7656,1350.9157509157508,,0,-1,1768775950.2597656
1768775950267.578,1348.7179487179487,,0,-1,1768775950.267578
1768775950275.3906,1353.113553113553,,0,-1,1768775950.2753906
1768775950283.2031,1353.8461538461538,,0,-1,1768775950.2832031
1768775950291.0156,1356.7765567765566,,0,-1,1768775950.2910156
1768775950298.828,1356.043956043956,,0,-1,1768775950.298828
1768775950306.6406,1358.974358974359,,0,-1,1768775950.3066406
1768775950314.4531,1356.043956043956,,0,-1,1768775950.3144531
1768775950322.2656,1356.7765567765566,,0,-1,1768775950.3222656
1768775950330.078,1352.3809523809523,,0,-1,1768775950.330078
1768775950337.8906,1351.6483516483515,,0,-1,1768775950.3378906
1768775950345.7031,1346.5201465201465,,0,-1,1768775950.3457031
1768775950353.5156,1343.5897435897434,,0,-1,1768775950.3535156
1768775950361.328,1341.3919413919414,,0,-1,1768775950.361328
1768775950369.1406,1342.124542124542,,0,-1,1768775950.3691406
1768775950376.9531,1342.124542124542,,0,-1,1768775950.3769531
1768775950384.7656,1342.124542124542,,0,-1,1768775950.3847656
1768775950392.578,1345.054945054945,,0,-1,1768775950.392578
1768775950400.3906,1342.124542124542,,0,-1,1768775950.4003906
1768775950408.2031,1345.054945054945,,0,-1,1768775950.4082031
1768775950416.0156,1347.2527472527472,,0,-1,1768775950.4160156
1768775950423.828,1353.8461538461538,,0,-1,1768775950.423828
1768775950431.6406,1356.7765567765566,,0,-1,1768775950.4316406
1768775950439.4531,1361.1721611721612,,0,-1,1768775950.4394531
1768775950447.2656,1361.1721611721612,,0,-1,1768775950.4472656
1768775950455.078,1363.3699633699632,,0,-1,1768775950.455078
1768775950462.8906,1373.6263736263736,,0,-1,1768775950.4628906
1768775950470.7031,1381.6849816849815,,0,-1,1768775950.4707031
1768775950478.5156,1391.2087912087911,,0,-1,1768775950.4785156
1768775950486.328,1398.5347985347985,,0,-1,1768775950.486328
1768775950494.1406,1402.197802197802,,0,-1,1768775950.4941406
1768775950501.9531,1409.5238095238094,,0,-1,1768775950.5019531
1768775950509.7656,1413.9194139194135,,0,-1,1768775950.5097656
1768775950517.578,1422.7106227106226,,0,-1,1768775950.517578
1768775950525.3906,1430.7692307692307,,0,-1,1768775950.5253906
1768775950533.2031,1438.095238095238,,0,-1,1768775950.5332031
1768775950541.0156,1440.29304029304,,0,-1,1768775950.5410156
1768775950548.828,1443.2234432234432,,0,-1,1768775950.548828
1768775950556.6406,1442.4908424908424,,0,-1,1768775950.5566406
1768775950564.4531,1448.3516483516482,,0,-1,1768775950.5644531
1768775950572.2656,1449.8168498168498,,0,-1,1768775950.5722656
1768775950580.078,1452.7472527472526,,0,-1,1768775950.580078
1768775950587.8906,1454.212454212454,,0,-1,1768775950.5878906
1768775950595.7031,1454.212454212454,,0,-1,1768775950.5957031
1768775950603.5156,1460.07326007326,,0,-1,1768775950.6035156
1768775950611.328,1467.3992673992673,,0,-1,1768775950.611328
1768775950619.1406,1464.4688644688645,,0,-1,1768775950.6191406
1768775950626.9531,1460.07326007326,,0,-1,1768775950.6269531
1768775950634.7656,1453.479853479853,,0,-1,1768775950.6347656
1768775950642.578,1448.3516483516482,,0,-1,1768775950.642578
1768775950650.3906,1442.4908424908424,,0,-1,1768775950.6503906
1768775950658.2031,1441.7582417582416,,0,-1,1768775950.6582031
1768775950666.0156,1435.8974358974358,,0,-1,1768775950.6660156
1768775950673.828,1432.9670329670328,,0,-1,1768775950.673828
1768775950681.6406,1427.106227106227,,0,-1,1768775950.6816406
1768775950689.4531,1419.7802197802198,,0,-1,1768775950.6894531
1768775950697.2656,1421.9780219780218,,0,-1,1768775950.6972656
1768775950705.078,1424.9084249084249,,0,-1,1768775950.705078
1768775950712.8906,1424.175824175824,,0,-1,1768775950.7128906
1768775950720.7031,1427.106227106227,,0,-1,1768775950.7207031
1768775950728.5156,1422.7106227106226,,0,-1,1768775950.7285156
1768775950736.328,1421.9780219780218,,0,-1,1768775950.736328
1768775950744.1406,1415.3846153846152,,0,-1,1768775950.7441406
1768775950751.9531,1416.117216117216,,0,-1,1768775950.7519531
1768775950759.7656,1412.4542124542124,,0,-1,1768775950.7597656
1768775950767.578,1413.9194139194135,,0,-1,1768775950.767578
1768775950775.3906,1413.1868131868132,,0,-1,1768775950.7753906
1768775950783.2031,1418.3150183150185,,0,-1,1768775950.7832031
1768775950791.0156,1424.9084249084249,,0,-1,1768775950.7910156
1768775950798.828,1427.8388278388277,,0,-1,1768775950.798828
1768775950806.6406,1436.6300366300366,,0,-1,1768775950.8066406
1768775950814.4531,1441.7582417582416,,0,-1,1768775950.8144531
1768775950822.2656,1443.956043956044,,0,-1,1768775950.8222656
1768775950830.078,1448.3516483516482,,0,-1,1768775950.830078
1768775950837.8906,1446.153846153846,,0,-1,1768775950.8378906
1768775950845.7031,1448.3516483516482,,0,-1,1768775950.8457031
1768775950853.5156,1444.688644688645,,0,-1,1768775950.8535156
1768775950861.328,1438.095238095238,,0,-1,1768775950.861328
1768775950869.1406,1432.2344322344322,,0,-1,1768775950.8691406
1768775950876.9531,1424.9084249084249,,0,-1,1768775950.8769531
1768775950884.7656,1419.047619047619,,0,-1,1768775950.8847656
1768775950892.578,1414.6520146520145,,0,-1,1768775950.892578
1768775950900.3906,1408.058608058608,,0,-1,1768775950.9003906
1768775950908.2031,1404.3956043956043,,0,-1,1768775950.9082031
1768775950916.0156,1401.4652014652013,,0,-1,1768775950.9160156
1768775950923.828,1400.7326007326003,,0,-1,1768775950.923828
1768775950931.6406,1394.8717948717947,,0,-1,1768775950.9316406
1768775950939.4531,1392.6739926739926,,0,-1,1768775950.9394531
1768775950947.2656,1383.8827838827838,,0,-1,1768775950.9472656
1768775950955.078,1379.4871794871794,,0,-1,1768775950.955078
1768775950962.8906,1373.6263736263736,,0,-1,1768775950.9628906
1768775950970.7031,1371.428571428571,,0,-1,1768775950.9707031
1768775950978.5156,1371.428571428571,,0,-1,1768775950.9785156
1768775950986.328,1369.9633699633698,,0,-1,1768775950.986328
1768775950994.1406,1367.7655677655678,,0,-1,1768775950.9941406
1768775951001.9531,1362.6373626373625,,0,-1,1768775951.0019531
1768775951009.7656,1364.102564102564,,0,-1,1768775951.0097656
1768775951017.578,1369.230769230769,,0,-1,1768775951.017578
1768775951025.3906,1370.6959706959706,,0,-1,1768775951.0253906
1768775951033.2031,1371.428571428571,,0,-1,1768775951.0332031
1768775951041.0156,1377.2893772893772,,0,-1,1768775951.0410156
1768775951048.828,1378.7545787545787,,0,-1,1768775951.048828
1768775951056.6406,1380.2197802197802,,0,-1,1768775951.0566406
1768775951064.4531,1377.2893772893772,,0,-1,1768775951.0644531
1768775951072.2656,1373.6263736263736,,0,-1,1768775951.0722656
1768775951080.078,1373.6263736263736,,0,-1,1768775951.080078
1768775951087.8906,1369.9633699633698,,0,-1,1768775951.0878906
1768775951095.7031,1369.230769230769,,0,-1,1768775951.0957031
1768775951103.5156,1364.8351648351647,,0,-1,1768775951.1035156
1768775951111.328,1366.3003663003662,,0,-1,1768775951.111328
1768775951119.1406,1364.8351648351647,,0,-1,1768775951.1191406
1768775951126.9531,1361.904761904762,,0,-1,1768775951.1269531
1768775951134.7656,1362.6373626373625,,0,-1,1768775951.1347656
1768775951142.578,1363.3699633699632,,0,-1,1768775951.142578
1768775951150.3906,1360.4395604395604,,0,-1,1768775951.1503906
1768775951158.2031,1359.7069597069597,,0,-1,1768775951.1582031
1768775951166.0156,1352.3809523809523,,0,-1,1768775951.1660156
1768775951173.828,1346.5201465201465,,0,-1,1768775951.173828
1768775951181.6406,1340.6593406593406,,0,-1,1768775951.1816406
1768775951189.4531,1331.135531135531,,0,-1,1768775951.1894531
1768775951197.2656,1323.076923076923,,0,-1,1768775951.1972656
1768775951205.078,1317.9487179487178,,0,-1,1768775951.205078
1768775951212.8906,1313.5531135531137,,0,-1,1768775951.2128906
1768775951220.7031,1309.89010989011,,0,-1,1768775951.2207031
1768775951228.5156,1306.9597069597069,,0,-1,1768775951.2285156
1768775951236.328,1308.4249084249084,,0,-1,1768775951.236328
1768775951244.1406,1313.5531135531137,,0,-1,1768775951.2441406
1768775951251.9531,1316.4835164835165,,0,-1,1768775951.2519531
1768775951259.7656,1317.9487179487178,,0,-1,1768775951.2597656
1768775951267.578,1321.6117216117216,,0,-1,1768775951.267578
1768775951275.3906,1327.4725274725274,,0,-1,1768775951.2753906
1768775951283.2031,1337.7289377289376,,0,-1,1768775951.2832031
1768775951291.0156,1345.7875457875457,,0,-1,1768775951.2910156
1768775951298.828,1354.5787545787546,,0,-1,1768775951.298828
1768775951306.6406,1362.6373626373625,,0,-1,1768775951.3066406
1768775951314.4531,1363.3699633699632,,0,-1,1768775951.3144531
1768775951322.2656,1358.974358974359,,0,-1,1768775951.3222656
1768775951330.078,1354.5787545787546,,0,-1,1768775951.330078
1768775951337.8906,1348.7179487179487,,0,-1,1768775951.3378906
1768775951345.7031,1342.857142857143,,0,-1,1768775951.3457031
1768775951353.5156,1337.7289377289376,,0,-1,1768775951.3535156
1768775951361.328,1336.9963369963368,,0,-1,1768775951.361328
1768775951369.1406,1336.9963369963368,,0,-1,1768775951.3691406
1768775951376.9531,1342.124542124542,,0,-1,1768775951.3769531
1768775951384.7656,1347.985347985348,,0,-1,1768775951.3847656
1768775951392.578,1353.8461538461538,,0,-1,1768775951.392578
1768775951400.3906,1363.3699633699632,,0,-1,1768775951.4003906
1768775951408.2031,1373.6263736263736,,0,-1,1768775951.4082031
1768775951416.0156,1383.150183150183,,0,-1,1768775951.4160156
1768775951423.828,1391.941391941392,,0,-1,1768775951.423828
1768775951431.6406,1399.2673992673992,,0,-1,1768775951.4316406
1768775951439.4531,1408.058608058608,,0,-1,1768775951.4394531
1768775951447.2656,1419.7802197802198,,0,-1,1768775951.4472656
1768775951455.078,1429.3040293040292,,0,-1,1768775951.455078
1768775951462.8906,1436.6300366300366,,0,-1,1768775951.4628906
1768775951470.7031,1440.29304029304,,0,-1,1768775951.4707031
1768775951478.5156,1446.153846153846,,0,-1,1768775951.4785156
1768775951486.328,1454.212454212454,,0,-1,1768775951.486328
1768775951494.1406,1460.805860805861,,0,-1,1768775951.4941406
1768775951501.9531,1467.3992673992673,,0,-1,1768775951.5019531
1768775951509.7656,1476.923076923077,,0,-1,1768775951.5097656
1768775951517.578,1482.051282051282,,0,-1,1768775951.517578
1768775951525.3906,1482.051282051282,,0,-1,1768775951.5253906
1768775951533.2031,1476.923076923077,,0,-1,1768775951.5332031
1768775951541.0156,1474.7252747252746,,0,-1,1768775951.5410156
1768775951548.828,1473.260073260073,,0,-1,1768775951.548828
1768775951556.6406,1473.260073260073,,0,-1,1768775951.5566406
1768775951564.4531,1476.190476190476,,0,-1,1768775951.5644531
1768775951572.2656,1478.3882783882782,,0,-1,1768775951.5722656
1768775951580.078,1475.4578754578754,,0,-1,1768775951.580078
1768775951587.8906,1475.4578754578754,,0,-1,1768775951.5878906
1768775951595.7031,1473.992673992674,,0,-1,1768775951.5957031
1768775951603.5156,1470.3296703296703,,0,-1,1768775951.6035156
1768775951611.328,1471.062271062271,,0,-1,1768775951.611328
1768775951619.1406,1473.260073260073,,0,-1,1768775951.6191406
1768775951626.9531,1473.260073260073,,0,-1,1768775951.6269531
1768775951634.7656,1473.992673992674,,0,-1,1768775951.6347656
1768775951642.578,1476.190476190476,,0,-1,1768775951.642578
1768775951650.3906,1476.923076923077,,0,-1,1768775951.6503906
1768775951658.2031,1471.062271062271,,0,-1,1768775951.6582031
1768775951666.0156,1463.003663003663,,0,-1,1768775951.6660156
1768775951673.828,1454.212454212454,,0,-1,1768775951.673828
1768775951681.6406,1448.3516483516482,,0,-1,1768775951.6816406
1768775951689.4531,1438.8278388278388,,0,-1,1768775951.6894531
1768775951697.2656,1435.164835164835,,0,-1,1768775951.6972656
1768775951705.078,1435.164835164835,,0,-1,1768775951.705078
1768775951712.8906,1441.7582417582416,,0,-1,1768775951.7128906
1768775951720.7031,1443.956043956044,,0,-1,1768775951.7207031
1768775951728.5156,1443.956043956044,,0,-1,1768775951.7285156
1768775951736.328,1443.2234432234432,,0,-1,1768775951.736328
1768775951744.1406,1443.2234432234432,,0,-1,1768775951.7441406
1768775951751.9531,1445.4212454212454,,0,-1,1768775951.7519531
1768775951759.7656,1443.2234432234432,,0,-1,1768775951.7597656
1768775951767.578,1438.095238095238,,0,-1,1768775951.767578
1768775951775.3906,1428.5714285714284,,0,-1,1768775951.7753906
1768775951783.2031,1416.8498168498168,,0,-1,1768775951.7832031
1768775951791.0156,1400.0,,0,-1,1768775951.7910156
1768775951798.828,1385.3479853479853,,0,-1,1768775951.798828
1768775951806.6406,1378.7545787545787,,0,-1,1768775951.8066406
1768775951814.4531,1379.4871794871794,,0,-1,1768775951.8144531
1768775951822.2656,1380.952380952381,,0,-1,1768775951.8222656
1768775951830.078,1389.0109890109889,,0,-1,1768775951.830078
1768775951837.8906,1394.8717948717947,,0,-1,1768775951.8378906
1768775951845.7031,1400.7326007326003,,0,-1,1768775951.8457031
1768775951853.5156,1402.9304029304028,,0,-1,1768775951.8535156
1768775951861.328,1405.8608058608058,,0,-1,1768775951.861328
1768775951869.1406,1411.7216117216117,,0,-1,1768775951.8691406
1768775951876.9531,1419.047619047619,,0,-1,1768775951.8769531
1768775951884.7656,1424.175824175824,,0,-1,1768775951.8847656
1768775951892.578,1429.3040293040292,,0,-1,1768775951.892578
1768775951900.3906,1432.2344322344322,,0,-1,1768775951.9003906
1768775951908.2031,1431.5018315018317,,0,-1,1768775951.9082031
1768775951916.0156,1429.3040293040292,,0,-1,1768775951.9160156
1768775951923.828,1427.106227106227,,0,-1,1768775951.923828
1768775951931.6406,1420.5128205128203,,0,-1,1768775951.9316406
1768775951939.4531,1409.5238095238094,,0,-1,1768775951.9394531
1768775951947.2656,1398.5347985347985,,0,-1,1768775951.9472656
1768775951955.078,1393.4065934065934,,0,-1,1768775951.955078
1768775951962.8906,1389.7435897435896,,0,-1,1768775951.9628906
1768775951970.7031,1389.0109890109889,,0,-1,1768775951.9707031
1768775951978.5156,1389.0109890109889,,0,-1,1768775951.9785156
1768775951986.328,1387.5457875457876,,0,-1,1768775951.986328
1768775951994.1406,1381.6849816849815,,0,-1,1768775951.9941406
1768775952001.9531,1370.6959706959706,,0,-1,1768775952.0019531
1768775952009.7656,1366.3003663003662,,0,-1,1768775952.0097656
1768775952017.578,1367.7655677655678,,0,-1,1768775952.017578
1768775952025.3906,1368.4981684981683,,0,-1,1768775952.0253906
1768775952033.2031,1368.4981684981683,,0,-1,1768775952.0332031
1768775952041.0156,1372.161172161172,,0,-1,1768775952.0410156
1768775952048.828,1380.2197802197802,,0,-1,1768775952.048828
1768775952056.6406,1387.5457875457876,,0,-1,1768775952.0566406
1768775952064.4531,1392.6739926739926,,0,-1,1768775952.0644531
1768775952072.2656,1394.139194139194,,0,-1,1768775952.0722656
1768775952080.078,1392.6739926739926,,0,-1,1768775952.080078
1768775952087.8906,1389.7435897435896,,0,-1,1768775952.0878906
1768775952095.7031,1386.8131868131868,,0,-1,1768775952.0957031
1768775952103.5156,1378.7545787545787,,0,-1,1768775952.1035156
1768775952111.328,1370.6959706959706,,0,-1,1768775952.111328
1768775952119.1406,1364.102564102564,,0,-1,1768775952.1191406
1768775952126.9531,1359.7069597069597,,0,-1,1768775952.1269531
1768775952134.7656,1354.5787545787546,,0,-1,1768775952.1347656
1768775952142.578,1347.2527472527472,,0,-1,1768775952.142578
1768775952150.3906,1341.3919413919414,,0,-1,1768775952.1503906
1768775952158.2031,1339.92673992674,,0,-1,1768775952.1582031
1768775952166.0156,1339.194139194139,,0,-1,1768775952.1660156
1768775952173.828,1337.7289377289376,,0,-1,1768775952.173828
1768775952181.6406,1335.5311355311355,,0,-1,1768775952.1816406
1768775952189.4531,1334.065934065934,,0,-1,1768775952.1894531
1768775952197.2656,1334.065934065934,,0,-1,1768775952.1972656
1768775952205.078,1332.6007326007325,,1,4,1768775952.205078
1768775952212.8906,1331.135531135531,,1,4,1768775952.2128906
1768775952220.7031,1328.937728937729,,1,4,1768775952.2207031
1768775952228.5156,1333.3333333333333,,1,4,1768775952.2285156
1768775952236.328,1341.3919413919414,,1,4,1768775952.236328
1768775952244.1406,1345.7875457875457,,1,4,1768775952.2441406
1768775952251.9531,1347.985347985348,,1,4,1768775952.2519531
1768775952259.7656,1347.985347985348,,1,4,1768775952.2597656
1768775952267.578,1346.5201465201465,,1,4,1768775952.267578
1768775952275.3906,1346.5201465201465,,1,4,1768775952.2753906
1768775952283.2031,1347.985347985348,,1,4,1768775952.2832031
1768775952291.0156,1346.5201465201465,,1,4,1768775952.2910156
1768775952298.828,1343.5897435897434,,1,4,1768775952.298828
1768775952306.6406,1342.857142857143,,1,4,1768775952.3066406
1768775952314.4531,1342.124542124542,,1,4,1768775952.3144531
1768775952322.2656,1340.6593406593406,,1,4,1768775952.3222656
1768775952330.078,1333.3333333333333,,1,4,1768775952.330078
1768775952337.8906,1327.4725274725274,,1,4,1768775952.3378906
1768775952345.7031,1323.8095238095236,,1,4,1768775952.3457031
1768775952353.5156,1324.5421245421244,,1,4,1768775952.3535156
1768775952361.328,1328.937728937729,,1,4,1768775952.361328
1768775952369.1406,1334.7985347985348,,1,4,1768775952.3691406
1768775952376.9531,1342.124542124542,,1,4,1768775952.3769531
1768775952384.7656,1350.18315018315,,1,4,1768775952.3847656
1768775952392.578,1354.5787545787546,,1,4,1768775952.392578
1768775952400.3906,1356.043956043956,,1,4,1768775952.4003906
1768775952408.2031,1358.241758241758,,1,4,1768775952.4082031
1768775952416.0156,1362.6373626373625,,1,4,1768775952.4160156
1768775952423.828,1369.9633699633698,,1,4,1768775952.423828
1768775952431.6406,1384.6153846153843,,1,4,1768775952.4316406
1768775952439.4531,1397.8021978021975,,1,4,1768775952.4394531
1768775952447.2656,1408.7912087912086,,1,4,1768775952.4472656
1768775952455.078,1418.3150183150185,,1,4,1768775952.455078
1768775952462.8906,1428.5714285714284,,1,4,1768775952.4628906
1768775952470.7031,1436.6300366300366,,1,4,1768775952.4707031
1768775952478.5156,1446.153846153846,,1,4,1768775952.4785156
1768775952486.328,1454.212454212454,,1,4,1768775952.486328
1768775952494.1406,1460.805860805861,,1,4,1768775952.4941406
1768775952501.9531,1463.7362637362637,,1,4,1768775952.5019531
1768775952509.7656,1464.4688644688645,,1,4,1768775952.5097656
1768775952517.578,1465.9340659340658,,1,4,1768775952.517578
1768775952525.3906,1468.8644688644688,,1,4,1768775952.5253906
1768775952533.2031,1471.062271062271,,1,4,1768775952.5332031
1768775952541.0156,1471.7948717948716,,1,4,1768775952.5410156
1768775952548.828,1469.5970695970695,,1,4,1768775952.548828
1768775952556.6406,1470.3296703296703,,1,4,1768775952.5566406
1768775952564.4531,1471.062271062271,,1,4,1768775952.5644531
1768775952572.2656,1471.062271062271,,1,4,1768775952.5722656
1768775952580.078,1468.131868131868,,1,4,1768775952.580078
1768775952587.8906,1465.201465201465,,1,4,1768775952.5878906
1768775952595.7031,1462.2710622710622,,1,4,1768775952.5957031
1768775952603.5156,1465.201465201465,,1,4,1768775952.6035156
1768775952611.328,1468.8644688644688,,1,4,1768775952.611328
1768775952619.1406,1469.5970695970695,,1,4,1768775952.6191406
1768775952626.9531,1466.6666666666663,,1,4,1768775952.6269531
1768775952634.7656,1463.7362637362637,,1,4,1768775952.6347656
1768775952642.578,1460.07326007326,,1,4,1768775952.642578
1768775952650.3906,1459.3406593406592,,1,4,1768775952.6503906
1768775952658.2031,1455.6776556776556,,1,4,1768775952.6582031
1768775952666.0156,1451.2820512820513,,1,4,1768775952.6660156
1768775952673.828,1445.4212454212454,,1,4,1768775952.673828
1768775952681.6406,1440.29304029304,,1,4,1768775952.6816406
1768775952689.4531,1433.6996336996335,,1,4,1768775952.6894531
1768775952697.2656,1428.5714285714284,,1,4,1768775952.6972656
1768775952705.078,1424.9084249084249,,1,4,1768775952.705078
1768775952712.8906,1424.175824175824,,1,4,1768775952.7128906
1768775952720.7031,1423.4432234432234,,1,4,1768775952.7207031
1768775952728.5156,1423.4432234432234,,1,4,1768775952.7285156
1768775952736.328,1421.245421245421,,1,4,1768775952.736328
1768775952744.1406,1421.245421245421,,1,4,1768775952.7441406
1768775952751.9531,1421.9780219780218,,1,4,1768775952.7519531
1768775952759.7656,1424.9084249084249,,1,4,1768775952.7597656
1768775952767.578,1427.106227106227,,1,4,1768775952.767578
1768775952775.3906,1432.2344322344322,,1,4,1768775952.7753906
1768775952783.2031,1435.164835164835,,1,4,1768775952.7832031
1768775952791.0156,1438.8278388278388,,1,4,1768775952.7910156
1768775952798.828,1439.5604395604394,,1,4,1768775952.798828
1768775952806.6406,1438.8278388278388,,1,4,1768775952.8066406
1768775952814.4531,1440.29304029304,,1,4,1768775952.8144531
1768775952822.2656,1443.956043956044,,1,4,1768775952.8222656
1768775952830.078,1441.7582417582416,,1,4,1768775952.830078
1768775952837.8906,1438.095238095238,,1,4,1768775952.8378906
1768775952845.7031,1425.6410256410256,,1,4,1768775952.8457031
1768775952853.5156,1409.5238095238094,,1,4,1768775952.8535156
1768775952861.328,1394.8717948717947,,1,4,1768775952.861328
1768775952869.1406,1387.5457875457876,,1,4,1768775952.8691406
1768775952876.9531,1388.278388278388,,1,4,1768775952.8769531
1768775952884.7656,1394.8717948717947,,1,4,1768775952.8847656
1768775952892.578,1400.7326007326003,,1,4,1768775952.892578
1768775952900.3906,1408.058608058608,,1,4,1768775952.9003906
1768775952908.2031,1412.4542124542124,,1,4,1768775952.9082031
1768775952916.0156,1410.2564102564102,,1,4,1768775952.9160156
1768775952923.828,1405.8608058608058,,1,4,1768775952.923828
1768775952931.6406,1400.7326007326003,,1,4,1768775952.9316406
1768775952939.4531,1394.139194139194,,1,4,1768775952.9394531
1768775952947.2656,1387.5457875457876,,1,4,1768775952.9472656
1768775952955.078,1382.4175824175825,,1,4,1768775952.955078
1768775952962.8906,1378.021978021978,,1,4,1768775952.9628906
1768775952970.7031,1375.091575091575,,1,4,1768775952.9707031
1768775952978.5156,1372.161172161172,,1,4,1768775952.9785156
1768775952986.328,1370.6959706959706,,1,4,1768775952.986328
1768775952994.1406,1369.230769230769,,1,4,1768775952.9941406
1768775953001.9531,1367.032967032967,,1,4,1768775953.0019531
1768775953009.7656,1364.8351648351647,,1,4,1768775953.0097656
1768775953017.578,1363.3699633699632,,1,4,1768775953.017578
1768775953025.3906,1361.904761904762,,1,4,1768775953.0253906
1768775953033.2031,1361.1721611721612,,1,4,1768775953.0332031
1768775953041.0156,1364.8351648351647,,1,4,1768775953.0410156
1768775953048.828,1370.6959706959706,,1,4,1768775953.048828
1768775953056.6406,1377.2893772893772,,1,4,1768775953.0566406
1768775953064.4531,1383.8827838827838,,1,4,1768775953.0644531
1768775953072.2656,1389.7435897435896,,1,4,1768775953.0722656
1768775953080.078,1393.4065934065934,,1,4,1768775953.080078
1768775953087.8906,1394.8717948717947,,1,4,1768775953.0878906
1768775953095.7031,1395.6043956043954,,1,4,1768775953.0957031
1768775953103.5156,1397.069597069597,,1,4,1768775953.1035156
1768775953111.328,1396.3369963369962,,1,4,1768775953.111328
1768775953119.1406,1390.4761904761904,,1,4,1768775953.1191406
1768775953126.9531,1381.6849816849815,,1,4,1768775953.1269531
1768775953134.7656,1369.9633699633698,,1,4,1768775953.1347656
1768775953142.578,1362.6373626373625,,1,4,1768775953.142578
1768775953150.3906,1358.241758241758,,1,4,1768775953.1503906
1768775953158.2031,1353.8461538461538,,1,4,1768775953.1582031
1768775953166.0156,1346.5201465201465,,1,4,1768775953.1660156
1768775953173.828,1340.6593406593406,,1,4,1768775953.173828
1768775953181.6406,1337.7289377289376,,1,4,1768775953.1816406
1768775953189.4531,1335.5311355311355,,1,4,1768775953.1894531
