Shimmer_6815_Timestamp_Unix_CAL,Shimmer_6815_PPG_A13_CAL,Unnamed: 2,inhale,inhale_id,epoch_sec
1768793765628.9673,18.315018315018317,,1,0,1768793765.6289673
1768793765636.7798,97.43589743589745,,1,0,1768793765.6367798
1768793765644.5923,207.3260073260073,,1,0,1768793765.6445923
1768793765652.4048,323.07692307692304,,1,0,1768793765.6524048
1768793765660.2173,443.9560439560439,,1,0,1768793765.6602173
1768793765668.0298,553.113553113553,,1,0,1768793765.6680298
1768793765675.8423,659.3406593406593,,1,0,1768793765.6758423
1768793765683.6548,749.4505494505494,,1,0,1768793765.6836548
1768793765691.4673,832.2344322344322,,1,0,1768793765.6914673
1768793765699.2798,905.4945054945056,,1,0,1768793765.6992798
1768793765707.0923,965.5677655677656,,1,0,1768793765.7070923
1768793765714.9048,1021.2454212454212,,1,0,1768793765.7149048
1768793765722.7173,1068.8644688644688,,1,0,1768793765.7227173
1768793765730.5298,1119.4139194139193,,1,0,1768793765.7305298
1768793765738.3423,1161.1721611721612,,1,0,1768793765.7383423
1768793765746.1548,1203.6630036630036,,1,0,1768793765.7461548
1768793765753.9673,1236.6300366300366,,1,0,1768793765.7539673
1768793765761.7798,1268.131868131868,,1,0,1768793765.7617798
1768793765769.5923,1293.7728937728937,,1,0,1768793765.7695923
1768793765777.4048,1311.3553113553112,,1,0,1768793765.7774048
1768793765785.2173,1328.937728937729,,1,0,1768793765.7852173
1768793765793.0298,1337.7289377289376,,1,0,1768793765.7930298
1768793765800.8423,1347.2527472527472,,1,0,1768793765.8008423
1768793765808.6548,1354.5787545787546,,1,0,1768793765.8086548
1768793765816.4673,1356.7765567765566,,1,0,1768793765.8164673
1768793765824.2798,1356.7765567765566,,1,0,1768793765.8242798
1768793765832.0923,1350.9157509157508,,1,0,1768793765.8320923
1768793765839.9048,1350.18315018315,,1,0,1768793765.8399048
1768793765847.7173,1342.124542124542,,1,0,1768793765.8477173
1768793765855.5298,1336.263736263736,,1,0,1768793765.8555298
1768793765863.3423,1328.937728937729,,1,0,1768793765.8633423
1768793765871.1548,1317.9487179487178,,1,0,1768793765.8711548
1768793765878.9673,1315.7509157509155,,1,0,1768793765.8789673
1768793765886.7798,1309.89010989011,,1,0,1768793765.8867798
1768793765894.5923,1304.7619047619046,,1,0,1768793765.8945923
1768793765902.4048,1304.7619047619046,,1,0,1768793765.9024048
1768793765910.2173,1303.2967032967033,,1,0,1768793765.9102173
1768793765918.0298,1304.7619047619046,,1,0,1768793765.9180298
1768793765925.8423,1304.7619047619046,,1,0,1768793765.9258423
1768793765933.6548,1304.7619047619046,,1,0,1768793765.9336548
1768793765941.4673,1309.1575091575091,,1,0,1768793765.9414673
1768793765949.2798,1309.89010989011,,1,0,1768793765.9492798
1768793765957.0923,1311.3553113553112,,1,0,1768793765.9570923
1768793765964.9048,1307.6923076923076,,1,0,1768793765.9649048
1768793765972.7173,1308.4249084249084,,1,0,1768793765.9727173
1768793765980.5298,1307.6923076923076,,1,0,1768793765.9805298
1768793765988.3423,1306.9597069597069,,1,0,1768793765.9883423
1768793765996.1548,1309.1575091575091,,1,0,1768793765.9961548
1768793766003.9673,1306.9597069597069,,1,0,1768793766.0039673
1768793766011.7798,1307.6923076923076,,1,0,1768793766.0117798
1768793766019.5923,1306.227106227106,,1,0,1768793766.0195923
1768793766027.4048,1304.7619047619046,,1,0,1768793766.0274048
1768793766035.2173,1306.227106227106,,1,0,1768793766.0352173
1768793766043.0298,1301.098901098901,,1,0,1768793766.0430298
1768793766050.8423,1298.9010989010987,,1,0,1768793766.0508423
1768793766058.6548,1292.3076923076922,,1,0,1768793766.0586548
1768793766066.4673,1286.4468864468863,,1,0,1768793766.0664673
1768793766074.2798,1284.9816849816848,,1,0,1768793766.0742798
1768793766082.0923,1278.3882783882782,,1,0,1768793766.0820923
1768793766089.9048,1279.120879120879,,1,0,1768793766.0899048
1768793766097.7173,1282.051282051282,,1,0,1768793766.0977173
1768793766105.5298,1277.6556776556777,,1,0,1768793766.1055298
1768793766113.3423,1275.4578754578754,,1,0,1768793766.1133423
1768793766121.1548,1273.260073260073,,1,0,1768793766.1211548
1768793766128.9673,1270.3296703296703,,1,0,1768793766.1289673
1768793766136.7798,1273.260073260073,,1,0,1768793766.1367798
1768793766144.5923,1278.3882783882782,,1,0,1768793766.1445923
1768793766152.4048,1278.3882783882782,,1,0,1768793766.1524048
1768793766160.2173,1282.7838827838827,,1,0,1768793766.1602173
1768793766168.0298,1282.051282051282,,1,0,1768793766.1680298
1768793766175.8423,1282.051282051282,,1,0,1768793766.1758423
1768793766183.6548,1284.2490842490845,,1,0,1768793766.1836548
1768793766191.4673,1282.7838827838827,,1,0,1768793766.1914673
1768793766199.2798,1284.9816849816848,,1,0,1768793766.1992798
1768793766207.0923,1286.4468864468863,,1,0,1768793766.2070923
1768793766214.9048,1282.7838827838827,,1,0,1768793766.2149048
1768793766222.7173,1281.3186813186812,,1,0,1768793766.2227173
1768793766230.5298,1273.992673992674,,1,0,1768793766.2305298
1768793766238.3423,1266.6666666666663,,1,0,1768793766.2383423
1768793766246.1548,1263.003663003663,,1,0,1768793766.2461548
1768793766253.9673,1257.875457875458,,1,0,1768793766.2539673
1768793766261.7798,1259.3406593406592,,1,0,1768793766.2617798
1768793766269.5923,1260.07326007326,,1,0,1768793766.2695923
1768793766277.4048,1257.875457875458,,1,0,1768793766.2774048
1768793766285.2173,1260.805860805861,,1,0,1768793766.2852173
1768793766293.0298,1260.805860805861,,1,0,1768793766.2930298
1768793766300.8423,1265.9340659340658,,1,0,1768793766.3008423
1768793766308.6548,1274.7252747252746,,1,0,1768793766.3086548
1768793766316.4673,1279.8534798534797,,1,0,1768793766.3164673
1768793766324.2798,1286.4468864468863,,1,0,1768793766.3242798
1768793766332.0923,1289.3772893772891,,1,0,1768793766.3320923
1768793766339.9048,1289.3772893772891,,1,0,1768793766.3399048
1768793766347.7173,1289.3772893772891,,1,0,1768793766.3477173
1768793766355.5298,1287.9120879120878,,1,0,1768793766.3555298
1768793766363.3423,1282.7838827838827,,1,0,1768793766.3633423
1768793766371.1548,1280.5860805860805,,1,0,1768793766.3711548
1768793766378.9673,1276.923076923077,,1,0,1768793766.3789673
1768793766386.7798,1270.3296703296703,,1,0,1768793766.3867798
1768793766394.5923,1265.9340659340658,,1,0,1768793766.3945923
1768793766402.4048,1258.6080586080586,,1,0,1768793766.4024048
1768793766410.2173,1249.8168498168498,,1,0,1768793766.4102173
1768793766418.0298,1241.0256410256409,,1,0,1768793766.4180298
1768793766425.8423,1236.6300366300366,,1,0,1768793766.4258423
1768793766433.6548,1232.2344322344322,,1,0,1768793766.4336548
1768793766441.4673,1229.3040293040292,,1,0,1768793766.4414673
1768793766449.2798,1232.2344322344322,,0,-1,1768793766.4492798
1768793766457.0923,1229.3040293040292,,0,-1,1768793766.4570923
1768793766464.9048,1224.9084249084249,,0,-1,1768793766.4649048
1768793766472.7173,1224.175824175824,,0,-1,1768793766.4727173
1768793766480.5298,1225.6410256410256,,0,-1,1768793766.4805298
1768793766488.3423,1225.6410256410256,,0,-1,1768793766.4883423
1768793766496.1548,1230.03663003663,,0,-1,1768793766.4961548
1768793766503.9673,1234.4322344322345,,0,-1,1768793766.5039673
1768793766511.7798,1235.164835164835,,0,-1,1768793766.5117798
1768793766519.5923,1240.29304029304,,0,-1,1768793766.5195923
1768793766527.4048,1243.956043956044,,0,-1,1768793766.5274048
1768793766535.2173,1244.688644688645,,0,-1,1768793766.5352173
1768793766543.0298,1246.8864468864467,,0,-1,1768793766.5430298
1768793766550.8423,1252.7472527472526,,0,-1,1768793766.5508423
1768793766558.6548,1255.6776556776556,,0,-1,1768793766.5586548
1768793766566.4673,1264.4688644688645,,0,-1,1768793766.5664673
1768793766574.2798,1282.051282051282,,0,-1,1768793766.5742798
1768793766582.0923,1296.7032967032967,,0,-1,1768793766.5820923
1768793766589.9048,1307.6923076923076,,0,-1,1768793766.5899048
1768793766597.7173,1319.4139194139193,,0,-1,1768793766.5977173
1768793766605.5298,1333.3333333333333,,0,-1,1768793766.6055298
1768793766613.3423,1350.18315018315,,0,-1,1768793766.6133423
1768793766621.1548,1361.1721611721612,,0,-1,1768793766.6211548
1768793766628.9673,1373.6263736263736,,0,-1,1768793766.6289673
1768793766636.7798,1386.8131868131868,,0,-1,1768793766.6367798
1768793766644.5923,1397.069597069597,,0,-1,1768793766.6445923
1768793766652.4048,1406.5934065934066,,0,-1,1768793766.6524048
1768793766660.2173,1416.117216117216,,0,-1,1768793766.6602173
1768793766668.0298,1430.7692307692307,,0,-1,1768793766.6680298
1768793766675.8423,1443.956043956044,,0,-1,1768793766.6758423
1768793766683.6548,1457.142857142857,,0,-1,1768793766.6836548
1768793766691.4673,1465.9340659340658,,0,-1,1768793766.6914673
1768793766699.2798,1471.062271062271,,0,-1,1768793766.6992798
1768793766707.0923,1473.260073260073,,0,-1,1768793766.7070923
1768793766714.9048,1475.4578754578754,,0,-1,1768793766.7149048
1768793766722.7173,1483.5164835164835,,0,-1,1768793766.7227173
1768793766730.5298,1493.040293040293,,0,-1,1768793766.7305298
1768793766738.3423,1503.2967032967033,,0,-1,1768793766.7383423
1768793766746.1548,1513.5531135531137,,0,-1,1768793766.7461548
1768793766753.9673,1523.0769230769229,,0,-1,1768793766.7539673
1768793766761.7798,1530.4029304029302,,0,-1,1768793766.7617798
1768793766769.5923,1534.065934065934,,0,-1,1768793766.7695923
1768793766777.4048,1534.7985347985348,,0,-1,1768793766.7774048
1768793766785.2173,1538.4615384615383,,0,-1,1768793766.7852173
1768793766793.0298,1547.2527472527472,,0,-1,1768793766.7930298
1768793766800.8423,1558.974358974359,,0,-1,1768793766.8008423
1768793766808.6548,1575.091575091575,,0,-1,1768793766.8086548
1768793766816.4673,1596.3369963369962,,0,-1,1768793766.8164673
1768793766824.2798,1621.245421245421,,0,-1,1768793766.8242798
1768793766832.0923,1644.688644688645,,0,-1,1768793766.8320923
1768793766839.9048,1670.3296703296703,,0,-1,1768793766.8399048
1768793766847.7173,1701.8315018315018,,0,-1,1768793766.8477173
1768793766855.5298,1738.4615384615383,,0,-1,1768793766.8555298
1768793766863.3423,1780.2197802197802,,0,-1,1768793766.8633423
1768793766871.1548,1827.838827838828,,0,-1,1768793766.8711548
1768793766878.9673,1881.3186813186808,,0,-1,1768793766.8789673
1768793766886.7798,1950.18315018315,,0,-1,1768793766.8867798
1768793766894.5923,2038.8278388278384,,0,-1,1768793766.8945923
1768793766902.4048,2158.974358974359,,0,-1,1768793766.9024048
1768793766910.2173,2330.4029304029305,,0,-1,1768793766.9102173
1768793766918.0298,2531.135531135531,,0,-1,1768793766.9180298
1768793766925.8423,2721.6117216117214,,0,-1,1768793766.9258423
1768793766933.6548,2794.139194139194,,0,-1,1768793766.9336548
1768793766941.4673,2793.4065934065934,,0,-1,1768793766.9414673
1768793766949.2798,2793.4065934065934,,0,-1,1768793766.9492798
1768793766957.0923,2794.139194139194,,0,-1,1768793766.9570923
1768793766964.9048,2794.139194139194,,0,-1,1768793766.9649048
1768793766972.7173,2793.4065934065934,,0,-1,1768793766.9727173
1768793766980.5298,2785.3479853479853,,0,-1,1768793766.9805298
1768793766988.3423,2718.6813186813183,,0,-1,1768793766.9883423
1768793766996.1548,2613.9194139194137,,0,-1,1768793766.9961548
1768793767003.9673,2485.7142857142853,,0,-1,1768793767.0039673
1768793767011.7798,2343.589743589744,,0,-1,1768793767.0117798
1768793767019.5923,2194.871794871795,,0,-1,1768793767.0195923
1768793767027.4048,2050.5494505494503,,0,-1,1768793767.0274048
1768793767035.2173,1912.8205128205127,,0,-1,1768793767.0352173
1768793767043.0298,1786.8131868131868,,0,-1,1768793767.0430298
1768793767050.8423,1675.4578754578754,,0,-1,1768793767.0508423
1768793767058.6548,1578.7545787545787,,0,-1,1768793767.0586548
1768793767066.4673,1495.970695970696,,0,-1,1768793767.0664673
1768793767074.2798,1428.5714285714284,,0,-1,1768793767.0742798
1768793767082.0923,1378.7545787545787,,0,-1,1768793767.0820923
1768793767089.9048,1345.054945054945,,0,-1,1768793767.0899048
1768793767097.7173,1322.3443223443223,,0,-1,1768793767.0977173
1768793767105.5298,1306.227106227106,,0,-1,1768793767.1055298
1768793767113.3423,1295.970695970696,,0,-1,1768793767.1133423
1768793767121.1548,1292.3076923076922,,0,-1,1768793767.1211548
1768793767128.9673,1290.8424908424909,,0,-1,1768793767.1289673
1768793767136.7798,1292.3076923076922,,0,-1,1768793767.1367798
1768793767144.5923,1291.5750915750914,,0,-1,1768793767.1445923
1768793767152.4048,1287.179487179487,,0,-1,1768793767.1524048
1768793767160.2173,1282.051282051282,,0,-1,1768793767.1602173
1768793767168.0298,1279.120879120879,,0,-1,1768793767.1680298
1768793767175.8423,1282.051282051282,,0,-1,1768793767.1758423
1768793767183.6548,1289.3772893772891,,0,-1,1768793767.1836548
1768793767191.4673,1300.3663003663005,,0,-1,1768793767.1914673
1768793767199.2798,1312.8205128205127,,0,-1,1768793767.1992798
1768793767207.0923,1324.5421245421244,,0,-1,1768793767.2070923
1768793767214.9048,1335.5311355311355,,0,-1,1768793767.2149048
1768793767222.7173,1342.857142857143,,0,-1,1768793767.2227173
1768793767230.5298,1346.5201465201465,,0,-1,1768793767.2305298
1768793767238.3423,1342.857142857143,,0,-1,1768793767.2383423
1768793767246.1548,1337.7289377289376,,0,-1,1768793767.2461548
1768793767253.9673,1334.065934065934,,0,-1,1768793767.2539673
1768793767261.7798,1330.4029304029302,,0,-1,1768793767.2617798
1768793767269.5923,1328.2051282051282,,0,-1,1768793767.2695923
1768793767277.4048,1320.8791208791208,,0,-1,1768793767.2774048
1768793767285.2173,1305.4945054945051,,0,-1,1768793767.2852173
1768793767293.0298,1288.6446886446886,,0,-1,1768793767.2930298
1768793767300.8423,1268.8644688644688,,0,-1,1768793767.3008423
1768793767308.6548,1249.8168498168498,,0,-1,1768793767.3086548
1768793767316.4673,1234.4322344322345,,0,-1,1768793767.3164673
1768793767324.2798,1223.4432234432234,,0,-1,1768793767.3242798
1768793767332.0923,1216.117216117216,,0,-1,1768793767.3320923
1768793767339.9048,1211.7216117216117,,0,-1,1768793767.3399048
1768793767347.7173,1207.3260073260074,,0,-1,1768793767.3477173
1768793767355.5298,1205.128205128205,,0,-1,1768793767.3555298
1768793767363.3423,1208.7912087912086,,0,-1,1768793767.3633423
1768793767371.1548,1213.9194139194135,,0,-1,1768793767.3711548
1768793767378.9673,1224.175824175824,,0,-1,1768793767.3789673
1768793767386.7798,1235.8974358974358,,0,-1,1768793767.3867798
1768793767394.5923,1250.5494505494505,,0,-1,1768793767.3945923
1768793767402.4048,1273.260073260073,,0,-1,1768793767.4024048
1768793767410.2173,1298.168498168498,,0,-1,1768793767.4102173
1768793767418.0298,1326.739926739927,,0,-1,1768793767.4180298
1768793767425.8423,1355.311355311355,,0,-1,1768793767.4258423
1768793767433.6548,1383.150183150183,,0,-1,1768793767.4336548
1768793767441.4673,1409.5238095238094,,0,-1,1768793767.4414673
1768793767449.2798,1434.4322344322345,,0,-1,1768793767.4492798
1768793767457.0923,1463.7362637362637,,0,-1,1768793767.4570923
1768793767464.9048,1493.7728937728937,,0,-1,1768793767.4649048
1768793767472.7173,1523.0769230769229,,0,-1,1768793767.4727173
1768793767480.5298,1547.985347985348,,0,-1,1768793767.4805298
1768793767488.3423,1567.7655677655678,,0,-1,1768793767.4883423
1768793767496.1548,1580.9523809523807,,0,-1,1768793767.4961548
1768793767503.9673,1585.3479853479853,,0,-1,1768793767.5039673
1768793767511.7798,1581.6849816849815,,0,-1,1768793767.5117798
1768793767519.5923,1575.091575091575,,0,-1,1768793767.5195923
1768793767527.4048,1561.1721611721612,,0,-1,1768793767.5274048
1768793767535.2173,1547.2527472527472,,0,-1,1768793767.5352173
1768793767543.0298,1530.4029304029302,,0,-1,1768793767.5430298
1768793767550.8423,1516.4835164835165,,0,-1,1768793767.5508423
1768793767558.6548,1504.7619047619046,,0,-1,1768793767.5586548
1768793767566.4673,1495.2380952380952,,0,-1,1768793767.5664673
1768793767574.2798,1489.3772893772891,,0,-1,1768793767.5742798
1768793767582.0923,1483.5164835164835,,0,-1,1768793767.5820923
1768793767589.9048,1478.3882783882782,,0,-1,1768793767.5899048
1768793767597.7173,1473.260073260073,,0,-1,1768793767.5977173
1768793767605.5298,1468.131868131868,,0,-1,1768793767.6055298
1768793767613.3423,1465.9340659340658,,0,-1,1768793767.6133423
1768793767621.1548,1456.4102564102564,,0,-1,1768793767.6211548
1768793767628.9673,1448.3516483516482,,0,-1,1768793767.6289673
1768793767636.7798,1440.29304029304,,0,-1,1768793767.6367798
1768793767644.5923,1430.03663003663,,0,-1,1768793767.6445923
1768793767652.4048,1419.7802197802198,,0,-1,1768793767.6524048
1768793767660.2173,1407.3260073260071,,0,-1,1768793767.6602173
1768793767668.0298,1393.4065934065934,,0,-1,1768793767.6680298
1768793767675.8423,1378.7545787545787,,0,-1,1768793767.6758423
1768793767683.6548,1366.3003663003662,,0,-1,1768793767.6836548
1768793767691.4673,1358.241758241758,,0,-1,1768793767.6914673
1768793767699.2798,1356.043956043956,,0,-1,1768793767.6992798
1768793767707.0923,1358.241758241758,,0,-1,1768793767.7070923
1768793767714.9048,1365.5677655677655,,0,-1,1768793767.7149048
1768793767722.7173,1376.5567765567764,,0,-1,1768793767.7227173
1768793767730.5298,1388.278388278388,,0,-1,1768793767.7305298
1768793767738.3423,1394.8717948717947,,0,-1,1768793767.7383423
1768793767746.1548,1405.128205128205,,0,-1,1768793767.7461548
1768793767753.9673,1413.9194139194135,,0,-1,1768793767.7539673
1768793767761.7798,1420.5128205128203,,0,-1,1768793767.7617798
1768793767769.5923,1428.5714285714284,,0,-1,1768793767.7695923
1768793767777.4048,1432.2344322344322,,0,-1,1768793767.7774048
1768793767785.2173,1432.2344322344322,,0,-1,1768793767.7852173
1768793767793.0298,1433.6996336996335,,0,-1,1768793767.7930298
1768793767800.8423,1438.095238095238,,0,-1,1768793767.8008423
1768793767808.6548,1440.29304029304,,0,-1,1768793767.8086548
1768793767816.4673,1437.362637362637,,0,-1,1768793767.8164673
1768793767824.2798,1431.5018315018317,,0,-1,1768793767.8242798
1768793767832.0923,1422.7106227106226,,0,-1,1768793767.8320923
1768793767839.9048,1409.5238095238094,,0,-1,1768793767.8399048
1768793767847.7173,1391.2087912087911,,0,-1,1768793767.8477173
1768793767855.5298,1367.032967032967,,0,-1,1768793767.8555298
1768793767863.3423,1342.124542124542,,0,-1,1768793767.8633423
1768793767871.1548,1323.8095238095236,,0,-1,1768793767.8711548
1768793767878.9673,1306.227106227106,,0,-1,1768793767.8789673
1768793767886.7798,1291.5750915750914,,0,-1,1768793767.8867798
1768793767894.5923,1279.8534798534797,,0,-1,1768793767.8945923
1768793767902.4048,1272.5274725274724,,0,-1,1768793767.9024048
1768793767910.2173,1267.3992673992673,,0,-1,1768793767.9102173
1768793767918.0298,1261.5384615384614,,0,-1,1768793767.9180298
1768793767925.8423,1260.07326007326,,0,-1,1768793767.9258423
1768793767933.6548,1261.5384615384614,,0,-1,1768793767.9336548
1768793767941.4673,1265.9340659340658,,0,-1,1768793767.9414673
1768793767949.2798,1276.190476190476,,0,-1,1768793767.9492798
1768793767957.0923,1289.3772893772891,,0,-1,1768793767.9570923
1768793767964.9048,1301.8315018315018,,0,-1,1768793767.9649048
1768793767972.7173,1319.4139194139193,,0,-1,1768793767.9727173
1768793767980.5298,1340.6593406593406,,0,-1,1768793767.9805298
1768793767988.3423,1364.102564102564,,0,-1,1768793767.9883423
1768793767996.1548,1386.080586080586,,0,-1,1768793767.9961548
1768793768003.9673,1408.058608058608,,0,-1,1768793768.0039673
1768793768011.7798,1429.3040293040292,,0,-1,1768793768.0117798
1768793768019.5923,1452.014652014652,,0,-1,1768793768.0195923
1768793768027.4048,1478.3882783882782,,0,-1,1768793768.0274048
1768793768035.2173,1498.9010989010987,,0,-1,1768793768.0352173
1768793768043.0298,1511.3553113553112,,0,-1,1768793768.0430298
1768793768050.8423,1518.6813186813183,,0,-1,1768793768.0508423
1768793768058.6548,1519.4139194139193,,0,-1,1768793768.0586548
1768793768066.4673,1517.216117216117,,0,-1,1768793768.0664673
1768793768074.2798,1510.6227106227104,,0,-1,1768793768.0742798
1768793768082.0923,1500.3663003663005,,0,-1,1768793768.0820923
1768793768089.9048,1486.4468864468863,,0,-1,1768793768.0899048
1768793768097.7173,1470.3296703296703,,0,-1,1768793768.0977173
1768793768105.5298,1457.875457875458,,0,-1,1768793768.1055298
1768793768113.3423,1441.0256410256409,,0,-1,1768793768.1133423
1768793768121.1548,1421.245421245421,,0,-1,1768793768.1211548
1768793768128.9673,1400.0,,0,-1,1768793768.1289673
1768793768136.7798,1377.2893772893772,,0,-1,1768793768.1367798
1768793768144.5923,1355.311355311355,,0,-1,1768793768.1445923
1768793768152.4048,1336.263736263736,,0,-1,1768793768.1524048
1768793768160.2173,1317.216117216117,,0,-1,1768793768.1602173
1768793768168.0298,1303.2967032967033,,0,-1,1768793768.1680298
1768793768175.8423,1290.8424908424909,,0,-1,1768793768.1758423
1768793768183.6548,1283.5164835164835,,0,-1,1768793768.1836548
1768793768191.4673,1281.3186813186812,,0,-1,1768793768.1914673
1768793768199.2798,1282.051282051282,,0,-1,1768793768.1992798
1768793768207.0923,1289.3772893772891,,0,-1,1768793768.2070923
1768793768214.9048,1298.9010989010987,,0,-1,1768793768.2149048
1768793768222.7173,1310.6227106227104,,0,-1,1768793768.2227173
1768793768230.5298,1323.8095238095236,,0,-1,1768793768.2305298
1768793768238.3423,1336.9963369963368,,0,-1,1768793768.2383423
1768793768246.1548,1348.7179487179487,,0,-1,1768793768.2461548
1768793768253.9673,1361.1721611721612,,0,-1,1768793768.2539673
1768793768261.7798,1374.3589743589744,,0,-1,1768793768.2617798
1768793768269.5923,1389.7435897435896,,0,-1,1768793768.2695923
1768793768277.4048,1405.128205128205,,0,-1,1768793768.2774048
1768793768285.2173,1419.7802197802198,,0,-1,1768793768.2852173
1768793768293.0298,1433.6996336996335,,0,-1,1768793768.2930298
1768793768300.8423,1449.084249084249,,0,-1,1768793768.3008423
1768793768308.6548,1461.5384615384614,,0,-1,1768793768.3086548
1768793768316.4673,1469.5970695970695,,0,-1,1768793768.3164673
1768793768324.2798,1471.7948717948716,,0,-1,1768793768.3242798
1768793768332.0923,1470.3296703296703,,0,-1,1768793768.3320923
1768793768339.9048,1471.062271062271,,0,-1,1768793768.3399048
1768793768347.7173,1479.120879120879,,0,-1,1768793768.3477173
1768793768355.5298,1493.7728937728937,,0,-1,1768793768.3555298
1768793768363.3423,1506.9597069597069,,0,-1,1768793768.3633423
1768793768371.1548,1516.4835164835165,,0,-1,1768793768.3711548
1768793768378.9673,1523.8095238095236,,0,-1,1768793768.3789673
1768793768386.7798,1528.937728937729,,0,-1,1768793768.3867798
1768793768394.5923,1531.135531135531,,0,-1,1768793768.3945923
1768793768402.4048,1528.2051282051282,,0,-1,1768793768.4024048
1768793768410.2173,1526.739926739927,,0,-1,1768793768.4102173
1768793768418.0298,1521.6117216117216,,0,-1,1768793768.4180298
1768793768425.8423,1517.9487179487178,,0,-1,1768793768.4258423
1768793768433.6548,1506.9597069597069,,0,-1,1768793768.4336548
1768793768441.4673,1498.168498168498,,0,-1,1768793768.4414673
1768793768449.2798,1489.3772893772891,,0,-1,1768793768.4492798
1768793768457.0923,1479.8534798534797,,0,-1,1768793768.4570923
1768793768464.9048,1470.3296703296703,,0,-1,1768793768.4649048
1768793768472.7173,1463.7362637362637,,0,-1,1768793768.4727173
1768793768480.5298,1458.6080586080584,,0,-1,1768793768.4805298
1768793768488.3423,1454.212454212454,,0,-1,1768793768.4883423
1768793768496.1548,1448.3516483516482,,0,-1,1768793768.4961548
1768793768503.9673,1443.956043956044,,0,-1,1768793768.5039673
1768793768511.7798,1441.0256410256409,,0,-1,1768793768.5117798
1768793768519.5923,1438.8278388278388,,0,-1,1768793768.5195923
1768793768527.4048,1435.8974358974358,,0,-1,1768793768.5274048
1768793768535.2173,1433.6996336996335,,0,-1,1768793768.5352173
1768793768543.0298,1433.6996336996335,,0,-1,1768793768.5430298
1768793768550.8423,1431.5018315018317,,0,-1,1768793768.5508423
1768793768558.6548,1424.9084249084249,,0,-1,1768793768.5586548
1768793768566.4673,1413.9194139194135,,0,-1,1768793768.5664673
1768793768574.2798,1398.5347985347985,,0,-1,1768793768.5742798
1768793768582.0923,1389.7435897435896,,0,-1,1768793768.5820923
1768793768589.9048,1390.4761904761904,,0,-1,1768793768.5899048
1768793768597.7173,1396.3369963369962,,0,-1,1768793768.5977173
1768793768605.5298,1403.6630036630036,,0,-1,1768793768.6055298
1768793768613.3423,1414.6520146520145,,0,-1,1768793768.6133423
1768793768621.1548,1424.9084249084249,,0,-1,1768793768.6211548
1768793768628.9673,1429.3040293040292,,0,-1,1768793768.6289673
1768793768636.7798,1436.6300366300366,,0,-1,1768793768.6367798
1768793768644.5923,1434.4322344322345,,0,-1,1768793768.6445923
1768793768652.4048,1432.2344322344322,,0,-1,1768793768.6524048
1768793768660.2173,1427.106227106227,,0,-1,1768793768.6602173
1768793768668.0298,1425.6410256410256,,0,-1,1768793768.6680298
1768793768675.8423,1415.3846153846152,,0,-1,1768793768.6758423
1768793768683.6548,1406.5934065934066,,0,-1,1768793768.6836548
1768793768691.4673,1393.4065934065934,,0,-1,1768793768.6914673
1768793768699.2798,1377.2893772893772,,0,-1,1768793768.6992798
1768793768707.0923,1369.230769230769,,0,-1,1768793768.7070923
1768793768714.9048,1361.904761904762,,1,1,1768793768.7149048
1768793768722.7173,1358.974358974359,,1,1,1768793768.7227173
1768793768730.5298,1364.8351648351647,,1,1,1768793768.7305298
1768793768738.3423,1368.4981684981683,,1,1,1768793768.7383423
1768793768746.1548,1377.2893772893772,,1,1,1768793768.7461548
1768793768753.9673,1383.150183150183,,1,1,1768793768.7539673
1768793768761.7798,1382.4175824175825,,1,1,1768793768.7617798
1768793768769.5923,1381.6849816849815,,1,1,1768793768.7695923
1768793768777.4048,1380.952380952381,,1,1,1768793768.7774048
1768793768785.2173,1376.5567765567764,,1,1,1768793768.7852173
1768793768793.0298,1374.3589743589744,,1,1,1768793768.7930298
1768793768800.8423,1372.8937728937728,,1,1,1768793768.8008423
1768793768808.6548,1367.7655677655678,,1,1,1768793768.8086548
1768793768816.4673,1365.5677655677655,,1,1,1768793768.8164673
1768793768824.2798,1360.4395604395604,,1,1,1768793768.8242798
1768793768832.0923,1353.8461538461538,,1,1,1768793768.8320923
1768793768839.9048,1350.18315018315,,1,1,1768793768.8399048
1768793768847.7173,1344.3223443223442,,1,1,1768793768.8477173
1768793768855.5298,1342.124542124542,,1,1,1768793768.8555298
1768793768863.3423,1341.3919413919414,,1,1,1768793768.8633423
1768793768871.1548,1336.263736263736,,1,1,1768793768.8711548
1768793768878.9673,1335.5311355311355,,1,1,1768793768.8789673
1768793768886.7798,1332.6007326007325,,1,1,1768793768.8867798
1768793768894.5923,1326.007326007326,,1,1,1768793768.8945923
1768793768902.4048,1322.3443223443223,,1,1,1768793768.9024048
1768793768910.2173,1317.9487179487178,,1,1,1768793768.9102173
1768793768918.0298,1315.7509157509155,,1,1,1768793768.9180298
1768793768925.8423,1317.216117216117,,1,1,1768793768.9258423
1768793768933.6548,1313.5531135531137,,1,1,1768793768.9336548
1768793768941.4673,1312.8205128205127,,1,1,1768793768.9414673
1768793768949.2798,1306.227106227106,,1,1,1768793768.9492798
1768793768957.0923,1302.5641025641023,,1,1,1768793768.9570923
1768793768964.9048,1301.098901098901,,1,1,1768793768.9649048
1768793768972.7173,1303.2967032967033,,1,1,1768793768.9727173
1768793768980.5298,1307.6923076923076,,1,1,1768793768.9805298
1768793768988.3423,1305.4945054945051,,1,1,1768793768.9883423
1768793768996.1548,1306.227106227106,,1,1,1768793768.9961548
1768793769003.9673,1302.5641025641023,,1,1,1768793769.0039673
1768793769011.7798,1302.5641025641023,,1,1,1768793769.0117798
1768793769019.5923,1302.5641025641023,,1,1,1768793769.0195923
1768793769027.4048,1306.9597069597069,,1,1,1768793769.0274048
1768793769035.2173,1312.8205128205127,,1,1,1768793769.0352173
1768793769043.0298,1315.018315018315,,1,1,1768793769.0430298
1768793769050.8423,1315.018315018315,,1,1,1768793769.0508423
1768793769058.6548,1313.5531135531137,,1,1,1768793769.0586548
1768793769066.4673,1314.2857142857142,,1,1,1768793769.0664673
1768793769074.2798,1315.7509157509155,,1,1,1768793769.0742798
1768793769082.0923,1312.8205128205127,,1,1,1768793769.0820923
1768793769089.9048,1317.216117216117,,1,1,1768793769.0899048
1768793769097.7173,1320.14652014652,,1,1,1768793769.0977173
1768793769105.5298,1325.2747252747251,,1,1,1768793769.1055298
1768793769113.3423,1326.007326007326,,1,1,1768793769.1133423
1768793769121.1548,1330.4029304029302,,1,1,1768793769.1211548
1768793769128.9673,1336.263736263736,,1,1,1768793769.1289673
1768793769136.7798,1338.4615384615383,,1,1,1768793769.1367798
1768793769144.5923,1344.3223443223442,,1,1,1768793769.1445923
1768793769152.4048,1343.5897435897434,,1,1,1768793769.1524048
1768793769160.2173,1344.3223443223442,,1,1,1768793769.1602173
1768793769168.0298,1334.7985347985348,,1,1,1768793769.1680298
1768793769175.8423,1332.6007326007325,,1,1,1768793769.1758423
1768793769183.6548,1325.2747252747251,,1,1,1768793769.1836548
1768793769191.4673,1325.2747252747251,,1,1,1768793769.1914673
1768793769199.2798,1323.076923076923,,1,1,1768793769.1992798
1768793769207.0923,1328.2051282051282,,1,1,1768793769.2070923
1768793769214.9048,1337.7289377289376,,1,1,1768793769.2149048
1768793769222.7173,1345.7875457875457,,1,1,1768793769.2227173
1768793769230.5298,1358.241758241758,,1,1,1768793769.2305298
1768793769238.3423,1369.9633699633698,,1,1,1768793769.2383423
1768793769246.1548,1381.6849816849815,,1,1,1768793769.2461548
1768793769253.9673,1391.941391941392,,1,1,1768793769.2539673
1768793769261.7798,1395.6043956043954,,1,1,1768793769.2617798
1768793769269.5923,1405.128205128205,,1,1,1768793769.2695923
1768793769277.4048,1408.7912087912086,,1,1,1768793769.2774048
1768793769285.2173,1410.989010989011,,1,1,1768793769.2852173
1768793769293.0298,1413.9194139194135,,1,1,1768793769.2930298
1768793769300.8423,1413.1868131868132,,1,1,1768793769.3008423
1768793769308.6548,1414.6520146520145,,1,1,1768793769.3086548
1768793769316.4673,1416.117216117216,,1,1,1768793769.3164673
1768793769324.2798,1413.9194139194135,,1,1,1768793769.3242798
1768793769332.0923,1414.6520146520145,,1,1,1768793769.3320923
1768793769339.9048,1410.989010989011,,1,1,1768793769.3399048
1768793769347.7173,1400.0,,1,1,1768793769.3477173
1768793769355.5298,1394.139194139194,,1,1,1768793769.3555298
1768793769363.3423,1387.5457875457876,,1,1,1768793769.3633423
1768793769371.1548,1382.4175824175825,,1,1,1768793769.3711548
1768793769378.9673,1385.3479853479853,,1,1,1768793769.3789673
1768793769386.7798,1387.5457875457876,,1,1,1768793769.3867798
1768793769394.5923,1397.8021978021975,,1,1,1768793769.3945923
1768793769402.4048,1404.3956043956043,,1,1,1768793769.4024048
1768793769410.2173,1414.6520146520145,,1,1,1768793769.4102173
1768793769418.0298,1427.106227106227,,1,1,1768793769.4180298
1768793769425.8423,1435.164835164835,,1,1,1768793769.4258423
1768793769433.6548,1438.8278388278388,,1,1,1768793769.4336548
1768793769441.4673,1443.956043956044,,1,1,1768793769.4414673
1768793769449.2798,1442.4908424908424,,1,1,1768793769.4492798
1768793769457.0923,1438.8278388278388,,1,1,1768793769.4570923
1768793769464.9048,1435.164835164835,,1,1,1768793769.4649048
1768793769472.7173,1422.7106227106226,,1,1,1768793769.4727173
1768793769480.5298,1416.117216117216,,1,1,1768793769.4805298
1768793769488.3423,1413.9194139194135,,1,1,1768793769.4883423
1768793769496.1548,1417.5824175824175,,1,1,1768793769.4961548
1768793769503.9673,1424.9084249084249,,1,1,1768793769.5039673
1768793769511.7798,1427.8388278388277,,1,1,1768793769.5117798
1768793769519.5923,1427.8388278388277,,1,1,1768793769.5195923
1768793769527.4048,1430.7692307692307,,1,1,1768793769.5274048
1768793769535.2173,1426.3736263736262,,1,1,1768793769.5352173
1768793769543.0298,1421.9780219780218,,1,1,1768793769.5430298
1768793769550.8423,1409.5238095238094,,1,1,1768793769.5508423
1768793769558.6548,1389.0109890109889,,1,1,1768793769.5586548
1768793769566.4673,1366.3003663003662,,1,1,1768793769.5664673
1768793769574.2798,1339.194139194139,,1,1,1768793769.5742798
1768793769582.0923,1323.076923076923,,1,1,1768793769.5820923
1768793769589.9048,1310.6227106227104,,1,1,1768793769.5899048
1768793769597.7173,1298.168498168498,,1,1,1768793769.5977173
1768793769605.5298,1291.5750915750914,,1,1,1768793769.6055298
1768793769613.3423,1284.2490842490845,,1,1,1768793769.6133423
1768793769621.1548,1285.7142857142856,,1,1,1768793769.6211548
1768793769628.9673,1293.040293040293,,1,1,1768793769.6289673
1768793769636.7798,1306.227106227106,,1,1,1768793769.6367798
1768793769644.5923,1326.007326007326,,1,1,1768793769.6445923
1768793769652.4048,1345.054945054945,,1,1,1768793769.6524048
1768793769660.2173,1367.032967032967,,1,1,1768793769.6602173
1768793769668.0298,1383.8827838827838,,1,1,1768793769.6680298
1768793769675.8423,1399.2673992673992,,1,1,1768793769.6758423
1768793769683.6548,1410.2564102564102,,1,1,1768793769.6836548
1768793769691.4673,1406.5934065934066,,1,1,1768793769.6914673
1768793769699.2798,1402.9304029304028,,1,1,1768793769.6992798
1768793769707.0923,1395.6043956043954,,1,1,1768793769.7070923
1768793769714.9048,1381.6849816849815,,1,1,1768793769.7149048
1768793769722.7173,1371.428571428571,,1,1,1768793769.7227173
1768793769730.5298,1363.3699633699632,,1,1,1768793769.7305298
1768793769738.3423,1355.311355311355,,1,1,1768793769.7383423
1768793769746.1548,1350.18315018315,,1,1,1768793769.7461548
1768793769753.9673,1350.9157509157508,,1,1,1768793769.7539673
1768793769761.7798,1353.8461538461538,,1,1,1768793769.7617798
1768793769769.5923,1355.311355311355,,1,1,1768793769.7695923
1768793769777.4048,1356.043956043956,,1,1,1768793769.7774048
1768793769785.2173,1357.5091575091574,,1,1,1768793769.7852173
1768793769793.0298,1355.311355311355,,1,1,1768793769.7930298
1768793769800.8423,1350.9157509157508,,1,1,1768793769.8008423
1768793769808.6548,1347.985347985348,,1,1,1768793769.8086548
1768793769816.4673,1348.7179487179487,,1,1,1768793769.8164673
1768793769824.2798,1350.18315018315,,1,1,1768793769.8242798
1768793769832.0923,1348.7179487179487,,1,1,1768793769.8320923
1768793769839.9048,1347.2527472527472,,1,1,1768793769.8399048
1768793769847.7173,1345.054945054945,,1,1,1768793769.8477173
1768793769855.5298,1336.9963369963368,,1,1,1768793769.8555298
1768793769863.3423,1330.4029304029302,,1,1,1768793769.8633423
1768793769871.1548,1326.007326007326,,1,1,1768793769.8711548
1768793769878.9673,1326.739926739927,,1,1,1768793769.8789673
1768793769886.7798,1323.076923076923,,1,1,1768793769.8867798
1768793769894.5923,1322.3443223443223,,1,1,1768793769.8945923
1768793769902.4048,1323.8095238095236,,1,1,1768793769.9024048
1768793769910.2173,1320.8791208791208,,1,1,1768793769.9102173
1768793769918.0298,1318.6813186813183,,1,1,1768793769.9180298
1768793769925.8423,1321.6117216117216,,1,1,1768793769.9258423
1768793769933.6548,1321.6117216117216,,1,1,1768793769.9336548
1768793769941.4673,1321.6117216117216,,1,1,1768793769.9414673
1768793769949.2798,1325.2747252747251,,1,1,1768793769.9492798
1768793769957.0923,1328.937728937729,,1,1,1768793769.9570923
1768793769964.9048,1328.2051282051282,,1,1,1768793769.9649048
1768793769972.7173,1326.007326007326,,1,1,1768793769.9727173
1768793769980.5298,1327.4725274725274,,1,1,1768793769.9805298
1768793769988.3423,1325.2747252747251,,1,1,1768793769.9883423
1768793769996.1548,1319.4139194139193,,1,1,1768793769.9961548
1768793770003.9673,1317.9487179487178,,1,1,1768793770.0039673
1768793770011.7798,1317.9487179487178,,1,1,1768793770.0117798
1768793770019.5923,1315.7509157509155,,1,1,1768793770.0195923
1768793770027.4048,1315.7509157509155,,1,1,1768793770.0274048
1768793770035.2173,1317.216117216117,,1,1,1768793770.0352173
1768793770043.0298,1314.2857142857142,,1,1,1768793770.0430298
1768793770050.8423,1306.9597069597069,,1,1,1768793770.0508423
1768793770058.6548,1299.6336996336995,,1,1,1768793770.0586548
1768793770066.4673,1294.5054945054944,,1,1,1768793770.0664673
1768793770074.2798,1290.10989010989,,1,1,1768793770.0742798
1768793770082.0923,1287.179487179487,,1,1,1768793770.0820923
1768793770089.9048,1284.9816849816848,,1,1,1768793770.0899048
1768793770097.7173,1289.3772893772891,,1,1,1768793770.0977173
1768793770105.5298,1288.6446886446886,,1,1,1768793770.1055298
1768793770113.3423,1288.6446886446886,,1,1,1768793770.1133423
1768793770121.1548,1290.10989010989,,1,1,1768793770.1211548
1768793770128.9673,1296.7032967032967,,1,1,1768793770.1289673
1768793770136.7798,1306.9597069597069,,1,1,1768793770.1367798
1768793770144.5923,1318.6813186813183,,1,1,1768793770.1445923
1768793770152.4048,1329.6703296703297,,1,1,1768793770.1524048
1768793770160.2173,1344.3223443223442,,1,1,1768793770.1602173
1768793770168.0298,1358.241758241758,,1,1,1768793770.1680298
1768793770175.8423,1369.230769230769,,1,1,1768793770.1758423
1768793770183.6548,1378.021978021978,,1,1,1768793770.1836548
1768793770191.4673,1387.5457875457876,,1,1,1768793770.1914673
1768793770199.2798,1393.4065934065934,,1,1,1768793770.1992798
1768793770207.0923,1393.4065934065934,,1,1,1768793770.2070923
1768793770214.9048,1389.7435897435896,,1,1,1768793770.2149048
1768793770222.7173,1386.8131868131868,,1,1,1768793770.2227173
1768793770230.5298,1387.5457875457876,,1,1,1768793770.2305298
1768793770238.3423,1385.3479853479853,,1,1,1768793770.2383423
1768793770246.1548,1385.3479853479853,,1,1,1768793770.2461548
1768793770253.9673,1384.6153846153843,,1,1,1768793770.2539673
1768793770261.7798,1380.2197802197802,,1,1,1768793770.2617798
1768793770269.5923,1375.8241758241757,,1,1,1768793770.2695923
1768793770277.4048,1375.8241758241757,,1,1,1768793770.2774048
1768793770285.2173,1380.952380952381,,1,1,1768793770.2852173
1768793770293.0298,1389.0109890109889,,1,1,1768793770.2930298
1768793770300.8423,1394.139194139194,,1,1,1768793770.3008423
1768793770308.6548,1392.6739926739926,,1,1,1768793770.3086548
1768793770316.4673,1389.7435897435896,,1,1,1768793770.3164673
1768793770324.2798,1385.3479853479853,,1,1,1768793770.3242798
1768793770332.0923,1380.2197802197802,,1,1,1768793770.3320923
1768793770339.9048,1375.091575091575,,1,1,1768793770.3399048
1768793770347.7173,1370.6959706959706,,1,1,1768793770.3477173
1768793770355.5298,1364.8351648351647,,1,1,1768793770.3555298
1768793770363.3423,1361.904761904762,,1,1,1768793770.3633423
1768793770371.1548,1361.904761904762,,1,1,1768793770.3711548
1768793770378.9673,1358.974358974359,,1,1,1768793770.3789673
1768793770386.7798,1355.311355311355,,1,1,1768793770.3867798
1768793770394.5923,1349.4505494505493,,1,1,1768793770.3945923
1768793770402.4048,1339.92673992674,,1,1,1768793770.4024048
1768793770410.2173,1331.135531135531,,1,1,1768793770.4102173
1768793770418.0298,1323.8095238095236,,1,1,1768793770.4180298
1768793770425.8423,1317.216117216117,,1,1,1768793770.4258423
1768793770433.6548,1309.89010989011,,1,1,1768793770.4336548
1768793770441.4673,1302.5641025641023,,1,1,1768793770.4414673
1768793770449.2798,1295.2380952380952,,1,1,1768793770.4492798
1768793770457.0923,1287.179487179487,,1,1,1768793770.4570923
1768793770464.9048,1279.8534798534797,,1,1,1768793770.4649048
1768793770472.7173,1275.4578754578754,,1,1,1768793770.4727173
1768793770480.5298,1274.7252747252746,,1,1,1768793770.4805298
1768793770488.3423,1278.3882783882782,,1,1,1768793770.4883423
1768793770496.1548,1284.2490842490845,,1,1,1768793770.4961548
1768793770503.9673,1289.3772893772891,,1,1,1768793770.5039673
1768793770511.7798,1293.7728937728937,,1,1,1768793770.5117798
1768793770519.5923,1297.4358974358977,,1,1,1768793770.5195923
1768793770527.4048,1302.5641025641023,,1,1,1768793770.5274048
1768793770535.2173,1309.1575091575091,,1,1,1768793770.5352173
1768793770543.0298,1314.2857142857142,,1,1,1768793770.5430298
1768793770550.8423,1316.4835164835165,,1,1,1768793770.5508423
1768793770558.6548,1316.4835164835165,,1,1,1768793770.5586548
1768793770566.4673,1314.2857142857142,,1,1,1768793770.5664673
1768793770574.2798,1315.7509157509155,,1,1,1768793770.5742798
1768793770582.0923,1319.4139194139193,,1,1,1768793770.5820923
1768793770589.9048,1322.3443223443223,,1,1,1768793770.5899048
1768793770597.7173,1325.2747252747251,,1,1,1768793770.5977173
1768793770605.5298,1326.739926739927,,1,1,1768793770.6055298
1768793770613.3423,1326.739926739927,,1,1,1768793770.6133423
1768793770621.1548,1324.5421245421244,,1,1,1768793770.6211548
1768793770628.9673,1323.076923076923,,1,1,1768793770.6289673
1768793770636.7798,1317.9487179487178,,1,1,1768793770.6367798
1768793770644.5923,1314.2857142857142,,1,1,1768793770.6445923
1768793770652.4048,1310.6227106227104,,1,1,1768793770.6524048
1768793770660.2173,1307.6923076923076,,1,1,1768793770.6602173
1768793770668.0298,1304.0293040293038,,1,1,1768793770.6680298
1768793770675.8423,1299.6336996336995,,1,1,1768793770.6758423
1768793770683.6548,1295.970695970696,,1,1,1768793770.6836548
1768793770691.4673,1292.3076923076922,,1,1,1768793770.6914673
1768793770699.2798,1287.179487179487,,1,1,1768793770.6992798
1768793770707.0923,1283.5164835164835,,1,1,1768793770.7070923
1768793770714.9048,1284.9816849816848,,1,1,1768793770.7149048
1768793770722.7173,1284.2490842490845,,1,1,1768793770.7227173
1768793770730.5298,1282.7838827838827,,1,1,1768793770.7305298
1768793770738.3423,1281.3186813186812,,1,1,1768793770.7383423
1768793770746.1548,1278.3882783882782,,1,1,1768793770.7461548
1768793770753.9673,1279.120879120879,,1,1,1768793770.7539673
1768793770761.7798,1281.3186813186812,,1,1,1768793770.7617798
1768793770769.5923,1284.2490842490845,,1,1,1768793770.7695923
1768793770777.4048,1285.7142857142856,,1,1,1768793770.7774048
1768793770785.2173,1284.9816849816848,,1,1,1768793770.7852173
1768793770793.0298,1284.2490842490845,,1,1,1768793770.7930298
1768793770800.8423,1279.8534798534797,,1,1,1768793770.8008423
1768793770808.6548,1276.190476190476,,1,1,1768793770.8086548
1768793770816.4673,1273.260073260073,,1,1,1768793770.8164673
1768793770824.2798,1271.062271062271,,1,1,1768793770.8242798
1768793770832.0923,1267.3992673992673,,1,1,1768793770.8320923
1768793770839.9048,1264.4688644688645,,1,1,1768793770.8399048
1768793770847.7173,1260.805860805861,,1,1,1768793770.8477173
1768793770855.5298,1260.07326007326,,1,1,1768793770.8555298
1768793770863.3423,1263.7362637362637,,1,1,1768793770.8633423
1768793770871.1548,1271.062271062271,,1,1,1768793770.8711548
1768793770878.9673,1279.120879120879,,1,1,1768793770.8789673
1768793770886.7798,1285.7142857142856,,1,1,1768793770.8867798
1768793770894.5923,1287.9120879120878,,1,1,1768793770.8945923
1768793770902.4048,1287.179487179487,,1,1,1768793770.9024048
1768793770910.2173,1284.9816849816848,,1,1,1768793770.9102173
1768793770918.0298,1282.051282051282,,1,1,1768793770.9180298
1768793770925.8423,1279.120879120879,,1,1,1768793770.9258423
1768793770933.6548,1277.6556776556777,,1,1,1768793770.9336548
1768793770941.4673,1278.3882783882782,,1,1,1768793770.9414673
1768793770949.2798,1284.2490842490845,,1,1,1768793770.9492798
1768793770957.0923,1295.2380952380952,,1,1,1768793770.9570923
1768793770964.9048,1310.6227106227104,,1,1,1768793770.9649048
1768793770972.7173,1325.2747252747251,,1,1,1768793770.9727173
1768793770980.5298,1338.4615384615383,,1,1,1768793770.9805298
1768793770988.3423,1347.2527472527472,,1,1,1768793770.9883423
1768793770996.1548,1354.5787545787546,,1,1,1768793770.9961548
1768793771003.9673,1361.904761904762,,1,1,1768793771.0039673
1768793771011.7798,1367.7655677655678,,1,1,1768793771.0117798
1768793771019.5923,1369.230769230769,,1,1,1768793771.0195923
1768793771027.4048,1367.032967032967,,1,1,1768793771.0274048
1768793771035.2173,1364.8351648351647,,1,1,1768793771.0352173
1768793771043.0298,1363.3699633699632,,1,1,1768793771.0430298
1768793771050.8423,1361.1721611721612,,1,1,1768793771.0508423
1768793771058.6548,1360.4395604395604,,1,1,1768793771.0586548
1768793771066.4673,1358.974358974359,,1,1,1768793771.0664673
1768793771074.2798,1358.974358974359,,1,1,1768793771.0742798
1768793771082.0923,1358.974358974359,,1,1,1768793771.0820923
1768793771089.9048,1356.7765567765566,,1,1,1768793771.0899048
1768793771097.7173,1355.311355311355,,1,1,1768793771.0977173
1768793771105.5298,1354.5787545787546,,1,1,1768793771.1055298
1768793771113.3423,1353.113553113553,,1,1,1768793771.1133423
1768793771121.1548,1353.113553113553,,1,1,1768793771.1211548
1768793771128.9673,1356.043956043956,,1,1,1768793771.1289673
1768793771136.7798,1360.4395604395604,,1,1,1768793771.1367798
1768793771144.5923,1363.3699633699632,,1,1,1768793771.1445923
1768793771152.4048,1362.6373626373625,,1,1,1768793771.1524048
1768793771160.2173,1358.974358974359,,1,1,1768793771.1602173
1768793771168.0298,1349.4505494505493,,1,1,1768793771.1680298
1768793771175.8423,1340.6593406593406,,1,1,1768793771.1758423
1768793771183.6548,1331.8681318681315,,1,1,1768793771.1836548
1768793771191.4673,1323.8095238095236,,1,1,1768793771.1914673
1768793771199.2798,1318.6813186813183,,1,1,1768793771.1992798
1768793771207.0923,1312.8205128205127,,1,1,1768793771.2070923
1768793771214.9048,1305.4945054945051,,1,1,1768793771.2149048
1768793771222.7173,1301.8315018315018,,1,1,1768793771.2227173
1768793771230.5298,1298.9010989010987,,1,1,1768793771.2305298
1768793771238.3423,1296.7032967032967,,1,1,1768793771.2383423
1768793771246.1548,1293.040293040293,,1,1,1768793771.2461548
1768793771253.9673,1287.9120879120878,,1,1,1768793771.2539673
1768793771261.7798,1284.9816849816848,,0,-1,1768793771.2617798
1768793771269.5923,1287.179487179487,,0,-1,1768793771.2695923
1768793771277.4048,1290.8424908424909,,0,-1,1768793771.2774048
1768793771285.2173,1293.040293040293,,0,-1,1768793771.2852173
1768793771293.0298,1298.9010989010987,,0,-1,1768793771.2930298
1768793771300.8423,1304.0293040293038,,0,-1,1768793771.3008423
1768793771308.6548,1312.087912087912,,0,-1,1768793771.3086548
1768793771316.4673,1321.6117216117216,,0,-1,1768793771.3164673
1768793771324.2798,1330.4029304029302,,0,-1,1768793771.3242798
1768793771332.0923,1338.4615384615383,,0,-1,1768793771.3320923
1768793771339.9048,1344.3223443223442,,0,-1,1768793771.3399048
1768793771347.7173,1345.7875457875457,,0,-1,1768793771.3477173
1768793771355.5298,1343.5897435897434,,0,-1,1768793771.3555298
1768793771363.3423,1336.263736263736,,0,-1,1768793771.3633423
1768793771371.1548,1328.2051282051282,,0,-1,1768793771.3711548
1768793771378.9673,1323.076923076923,,0,-1,1768793771.3789673
1768793771386.7798,1315.018315018315,,0,-1,1768793771.3867798
1768793771394.5923,1303.2967032967033,,0,-1,1768793771.3945923
1768793771402.4048,1289.3772893772891,,0,-1,1768793771.4024048
1768793771410.2173,1279.8534798534797,,0,-1,1768793771.4102173
1768793771418.0298,1276.190476190476,,0,-1,1768793771.4180298
1768793771425.8423,1278.3882783882782,,0,-1,1768793771.4258423
1768793771433.6548,1284.9816849816848,,0,-1,1768793771.4336548
1768793771441.4673,1290.10989010989,,0,-1,1768793771.4414673
1768793771449.2798,1295.2380952380952,,0,-1,1768793771.4492798
1768793771457.0923,1301.098901098901,,0,-1,1768793771.4570923
1768793771464.9048,1306.227106227106,,0,-1,1768793771.4649048
1768793771472.7173,1306.9597069597069,,0,-1,1768793771.4727173
1768793771480.5298,1305.4945054945051,,0,-1,1768793771.4805298
1768793771488.3423,1302.5641025641023,,0,-1,1768793771.4883423
1768793771496.1548,1298.9010989010987,,0,-1,1768793771.4961548
1768793771503.9673,1295.970695970696,,0,-1,1768793771.5039673
1768793771511.7798,1290.8424908424909,,0,-1,1768793771.5117798
1768793771519.5923,1282.7838827838827,,0,-1,1768793771.5195923
1768793771527.4048,1275.4578754578754,,0,-1,1768793771.5274048
1768793771535.2173,1269.5970695970695,,0,-1,1768793771.5352173
1768793771543.0298,1267.3992673992673,,0,-1,1768793771.5430298
1768793771550.8423,1269.5970695970695,,0,-1,1768793771.5508423
1768793771558.6548,1274.7252747252746,,0,-1,1768793771.5586548
1768793771566.4673,1279.120879120879,,0,-1,1768793771.5664673
1768793771574.2798,1281.3186813186812,,0,-1,1768793771.5742798
1768793771582.0923,1281.3186813186812,,0,-1,1768793771.5820923
1768793771589.9048,1282.051282051282,,0,-1,1768793771.5899048
1768793771597.7173,1282.7838827838827,,0,-1,1768793771.5977173
1768793771605.5298,1282.7838827838827,,0,-1,1768793771.6055298
1768793771613.3423,1282.7838827838827,,0,-1,1768793771.6133423
1768793771621.1548,1284.2490842490845,,0,-1,1768793771.6211548
1768793771628.9673,1284.2490842490845,,0,-1,1768793771.6289673
1768793771636.7798,1284.9816849816848,,0,-1,1768793771.6367798
1768793771644.5923,1285.7142857142856,,0,-1,1768793771.6445923
1768793771652.4048,1285.7142857142856,,0,-1,1768793771.6524048
1768793771660.2173,1282.7838827838827,,0,-1,1768793771.6602173
1768793771668.0298,1281.3186813186812,,0,-1,1768793771.6680298
1768793771675.8423,1283.5164835164835,,0,-1,1768793771.6758423
1768793771683.6548,1287.179487179487,,0,-1,1768793771.6836548
1768793771691.4673,1291.5750915750914,,0,-1,1768793771.6914673
1768793771699.2798,1294.5054945054944,,0,-1,1768793771.6992798
1768793771707.0923,1291.5750915750914,,0,-1,1768793771.7070923
1768793771714.9048,1284.9816849816848,,0,-1,1768793771.7149048
1768793771722.7173,1282.7838827838827,,0,-1,1768793771.7227173
1768793771730.5298,1286.4468864468863,,0,-1,1768793771.7305298
1768793771738.3423,1293.7728937728937,,0,-1,1768793771.7383423
1768793771746.1548,1304.7619047619046,,0,-1,1768793771.7461548
1768793771753.9673,1319.4139194139193,,0,-1,1768793771.7539673
1768793771761.7798,1332.6007326007325,,0,-1,1768793771.7617798
1768793771769.5923,1345.7875457875457,,0,-1,1768793771.7695923
1768793771777.4048,1363.3699633699632,,0,-1,1768793771.7774048
1768793771785.2173,1378.7545787545787,,0,-1,1768793771.7852173
1768793771793.0298,1387.5457875457876,,0,-1,1768793771.7930298
1768793771800.8423,1393.4065934065934,,0,-1,1768793771.8008423
1768793771808.6548,1399.2673992673992,,0,-1,1768793771.8086548
1768793771816.4673,1404.3956043956043,,0,-1,1768793771.8164673
1768793771824.2798,1408.058608058608,,0,-1,1768793771.8242798
1768793771832.0923,1409.5238095238094,,0,-1,1768793771.8320923
1768793771839.9048,1408.7912087912086,,0,-1,1768793771.8399048
1768793771847.7173,1404.3956043956043,,0,-1,1768793771.8477173
1768793771855.5298,1397.069597069597,,0,-1,1768793771.8555298
1768793771863.3423,1392.6739926739926,,0,-1,1768793771.8633423
1768793771871.1548,1392.6739926739926,,0,-1,1768793771.8711548
1768793771878.9673,1393.4065934065934,,0,-1,1768793771.8789673
1768793771886.7798,1391.941391941392,,0,-1,1768793771.8867798
1768793771894.5923,1393.4065934065934,,0,-1,1768793771.8945923
1768793771902.4048,1391.2087912087911,,0,-1,1768793771.9024048
1768793771910.2173,1390.4761904761904,,0,-1,1768793771.9102173
1768793771918.0298,1393.4065934065934,,0,-1,1768793771.9180298
1768793771925.8423,1395.6043956043954,,0,-1,1768793771.9258423
1768793771933.6548,1394.139194139194,,0,-1,1768793771.9336548
1768793771941.4673,1392.6739926739926,,0,-1,1768793771.9414673
1768793771949.2798,1388.278388278388,,0,-1,1768793771.9492798
1768793771957.0923,1380.952380952381,,0,-1,1768793771.9570923
1768793771964.9048,1376.5567765567764,,0,-1,1768793771.9649048
1768793771972.7173,1369.9633699633698,,0,-1,1768793771.9727173
1768793771980.5298,1367.7655677655678,,0,-1,1768793771.9805298
1768793771988.3423,1364.102564102564,,0,-1,1768793771.9883423
1768793771996.1548,1361.904761904762,,0,-1,1768793771.9961548
1768793772003.9673,1363.3699633699632,,0,-1,1768793772.0039673
1768793772011.7798,1361.904761904762,,0,-1,1768793772.0117798
1768793772019.5923,1366.3003663003662,,0,-1,1768793772.0195923
1768793772027.4048,1373.6263736263736,,0,-1,1768793772.0274048
1768793772035.2173,1374.3589743589744,,0,-1,1768793772.0352173
1768793772043.0298,1376.5567765567764,,0,-1,1768793772.0430298
1768793772050.8423,1367.7655677655678,,0,-1,1768793772.0508423
1768793772058.6548,1360.4395604395604,,0,-1,1768793772.0586548
1768793772066.4673,1353.113553113553,,0,-1,1768793772.0664673
1768793772074.2798,1349.4505494505493,,0,-1,1768793772.0742798
1768793772082.0923,1347.985347985348,,0,-1,1768793772.0820923
1768793772089.9048,1342.857142857143,,0,-1,1768793772.0899048
1768793772097.7173,1337.7289377289376,,0,-1,1768793772.0977173
1768793772105.5298,1334.065934065934,,0,-1,1768793772.1055298
1768793772113.3423,1328.937728937729,,0,-1,1768793772.1133423
1768793772121.1548,1320.8791208791208,,0,-1,1768793772.1211548
1768793772128.9673,1320.14652014652,,0,-1,1768793772.1289673
1768793772136.7798,1319.4139194139193,,0,-1,1768793772.1367798
1768793772144.5923,1319.4139194139193,,0,-1,1768793772.1445923
1768793772152.4048,1323.8095238095236,,0,-1,1768793772.1524048
1768793772160.2173,1325.2747252747251,,0,-1,1768793772.1602173
1768793772168.0298,1329.6703296703297,,0,-1,1768793772.1680298
1768793772175.8423,1334.7985347985348,,0,-1,1768793772.1758423
1768793772183.6548,1336.263736263736,,0,-1,1768793772.1836548
1768793772191.4673,1340.6593406593406,,0,-1,1768793772.1914673
1768793772199.2798,1339.194139194139,,0,-1,1768793772.1992798
1768793772207.0923,1338.4615384615383,,0,-1,1768793772.2070923
1768793772214.9048,1336.263736263736,,0,-1,1768793772.2149048
1768793772222.7173,1328.937728937729,,0,-1,1768793772.2227173
1768793772230.5298,1326.007326007326,,0,-1,1768793772.2305298
1768793772238.3423,1318.6813186813183,,0,-1,1768793772.2383423
1768793772246.1548,1314.2857142857142,,0,-1,1768793772.2461548
1768793772253.9673,1311.3553113553112,,0,-1,1768793772.2539673
1768793772261.7798,1306.227106227106,,0,-1,1768793772.2617798
1768793772269.5923,1304.7619047619046,,0,-1,1768793772.2695923
1768793772277.4048,1297.4358974358977,,0,-1,1768793772.2774048
1768793772285.2173,1294.5054945054944,,0,-1,1768793772.2852173
1768793772293.0298,1288.6446886446886,,0,-1,1768793772.2930298
1768793772300.8423,1292.3076923076922,,0,-1,1768793772.3008423
1768793772308.6548,1294.5054945054944,,0,-1,1768793772.3086548
1768793772316.4673,1300.3663003663005,,0,-1,1768793772.3164673
1768793772324.2798,1303.2967032967033,,0,-1,1768793772.3242798
1768793772332.0923,1305.4945054945051,,0,-1,1768793772.3320923
1768793772339.9048,1311.3553113553112,,0,-1,1768793772.3399048
1768793772347.7173,1316.4835164835165,,0,-1,1768793772.3477173
1768793772355.5298,1317.9487179487178,,0,-1,1768793772.3555298
1768793772363.3423,1323.076923076923,,0,-1,1768793772.3633423
1768793772371.1548,1322.3443223443223,,0,-1,1768793772.3711548
1768793772378.9673,1320.8791208791208,,0,-1,1768793772.3789673
1768793772386.7798,1320.8791208791208,,0,-1,1768793772.3867798
1768793772394.5923,1314.2857142857142,,0,-1,1768793772.3945923
1768793772402.4048,1308.4249084249084,,0,-1,1768793772.4024048
1768793772410.2173,1305.4945054945051,,0,-1,1768793772.4102173
1768793772418.0298,1302.5641025641023,,0,-1,1768793772.4180298
1768793772425.8423,1299.6336996336995,,0,-1,1768793772.4258423
1768793772433.6548,1303.2967032967033,,0,-1,1768793772.4336548
1768793772441.4673,1303.2967032967033,,0,-1,1768793772.4414673
1768793772449.2798,1301.098901098901,,0,-1,1768793772.4492798
1768793772457.0923,1296.7032967032967,,0,-1,1768793772.4570923
1768793772464.9048,1284.2490842490845,,0,-1,1768793772.4649048
1768793772472.7173,1279.120879120879,,0,-1,1768793772.4727173
1768793772480.5298,1272.5274725274724,,0,-1,1768793772.4805298
1768793772488.3423,1274.7252747252746,,0,-1,1768793772.4883423
1768793772496.1548,1280.5860805860805,,0,-1,1768793772.4961548
1768793772503.9673,1279.120879120879,,0,-1,1768793772.5039673
1768793772511.7798,1280.5860805860805,,0,-1,1768793772.5117798
1768793772519.5923,1277.6556776556777,,0,-1,1768793772.5195923
1768793772527.4048,1273.992673992674,,0,-1,1768793772.5274048
1768793772535.2173,1278.3882783882782,,0,-1,1768793772.5352173
1768793772543.0298,1279.8534798534797,,0,-1,1768793772.5430298
1768793772550.8423,1290.8424908424909,,0,-1,1768793772.5508423
1768793772558.6548,1299.6336996336995,,0,-1,1768793772.5586548
1768793772566.4673,1306.227106227106,,0,-1,1768793772.5664673
1768793772574.2798,1315.018315018315,,0,-1,1768793772.5742798
1768793772582.0923,1321.6117216117216,,0,-1,1768793772.5820923
1768793772589.9048,1331.135531135531,,0,-1,1768793772.5899048
1768793772597.7173,1346.5201465201465,,0,-1,1768793772.5977173
1768793772605.5298,1356.7765567765566,,0,-1,1768793772.6055298
1768793772613.3423,1374.3589743589744,,0,-1,1768793772.6133423
1768793772621.1548,1393.4065934065934,,0,-1,1768793772.6211548
1768793772628.9673,1409.5238095238094,,0,-1,1768793772.6289673
1768793772636.7798,1425.6410256410256,,0,-1,1768793772.6367798
1768793772644.5923,1441.0256410256409,,0,-1,1768793772.6445923
1768793772652.4048,1451.2820512820513,,0,-1,1768793772.6524048
1768793772660.2173,1460.805860805861,,0,-1,1768793772.6602173
1768793772668.0298,1463.7362637362637,,0,-1,1768793772.6680298
1768793772675.8423,1468.8644688644688,,0,-1,1768793772.6758423
1768793772683.6548,1468.131868131868,,0,-1,1768793772.6836548
1768793772691.4673,1464.4688644688645,,0,-1,1768793772.6914673
1768793772699.2798,1464.4688644688645,,0,-1,1768793772.6992798
1768793772707.0923,1458.6080586080584,,0,-1,1768793772.7070923
1768793772714.9048,1457.875457875458,,0,-1,1768793772.7149048
1768793772722.7173,1452.7472527472526,,0,-1,1768793772.7227173
1768793772730.5298,1449.084249084249,,0,-1,1768793772.7305298
1768793772738.3423,1445.4212454212454,,0,-1,1768793772.7383423
1768793772746.1548,1439.5604395604394,,0,-1,1768793772.7461548
1768793772753.9673,1441.7582417582416,,0,-1,1768793772.7539673
1768793772761.7798,1443.956043956044,,0,-1,1768793772.7617798
1768793772769.5923,1452.014652014652,,0,-1,1768793772.7695923
1768793772777.4048,1453.479853479853,,0,-1,1768793772.7774048
1768793772785.2173,1460.805860805861,,0,-1,1768793772.7852173
1768793772793.0298,1461.5384615384614,,0,-1,1768793772.7930298
1768793772800.8423,1463.7362637362637,,0,-1,1768793772.8008423
1768793772808.6548,1465.9340659340658,,0,-1,1768793772.8086548
1768793772816.4673,1468.8644688644688,,0,-1,1768793772.8164673
1768793772824.2798,1473.260073260073,,0,-1,1768793772.8242798
1768793772832.0923,1474.7252747252746,,0,-1,1768793772.8320923
1768793772839.9048,1475.4578754578754,,0,-1,1768793772.8399048
1768793772847.7173,1474.7252747252746,,0,-1,1768793772.8477173
1768793772855.5298,1468.131868131868,,0,-1,1768793772.8555298
1768793772863.3423,1462.2710622710622,,0,-1,1768793772.8633423
1768793772871.1548,1449.084249084249,,0,-1,1768793772.8711548
1768793772878.9673,1439.5604395604394,,0,-1,1768793772.8789673
1768793772886.7798,1425.6410256410256,,0,-1,1768793772.8867798
1768793772894.5923,1416.8498168498168,,0,-1,1768793772.8945923
1768793772902.4048,1404.3956043956043,,0,-1,1768793772.9024048
1768793772910.2173,1397.069597069597,,0,-1,1768793772.9102173
1768793772918.0298,1393.4065934065934,,0,-1,1768793772.9180298
1768793772925.8423,1396.3369963369962,,0,-1,1768793772.9258423
1768793772933.6548,1397.8021978021975,,0,-1,1768793772.9336548
1768793772941.4673,1405.8608058608058,,0,-1,1768793772.9414673
1768793772949.2798,1407.3260073260071,,0,-1,1768793772.9492798
1768793772957.0923,1409.5238095238094,,0,-1,1768793772.9570923
1768793772964.9048,1406.5934065934066,,0,-1,1768793772.9649048
1768793772972.7173,1406.5934065934066,,0,-1,1768793772.9727173
1768793772980.5298,1406.5934065934066,,0,-1,1768793772.9805298
1768793772988.3423,1406.5934065934066,,0,-1,1768793772.9883423
1768793772996.1548,1409.5238095238094,,0,-1,1768793772.9961548
1768793773003.9673,1408.7912087912086,,0,-1,1768793773.0039673
1768793773011.7798,1410.989010989011,,0,-1,1768793773.0117798
1768793773019.5923,1406.5934065934066,,0,-1,1768793773.0195923
1768793773027.4048,1405.128205128205,,0,-1,1768793773.0274048
1768793773035.2173,1402.9304029304028,,0,-1,1768793773.0352173
1768793773043.0298,1401.4652014652013,,0,-1,1768793773.0430298
1768793773050.8423,1403.6630036630036,,0,-1,1768793773.0508423
1768793773058.6548,1398.5347985347985,,0,-1,1768793773.0586548
1768793773066.4673,1396.3369963369962,,0,-1,1768793773.0664673
1768793773074.2798,1389.7435897435896,,0,-1,1768793773.0742798
1768793773082.0923,1386.080586080586,,0,-1,1768793773.0820923
1768793773089.9048,1378.7545787545787,,0,-1,1768793773.0899048
1768793773097.7173,1374.3589743589744,,0,-1,1768793773.0977173
1768793773105.5298,1364.102564102564,,0,-1,1768793773.1055298
1768793773113.3423,1361.904761904762,,0,-1,1768793773.1133423
1768793773121.1548,1357.5091575091574,,0,-1,1768793773.1211548
1768793773128.9673,1358.974358974359,,0,-1,1768793773.1289673
1768793773136.7798,1354.5787545787546,,0,-1,1768793773.1367798
1768793773144.5923,1353.8461538461538,,0,-1,1768793773.1445923
1768793773152.4048,1351.6483516483515,,0,-1,1768793773.1524048
1768793773160.2173,1358.974358974359,,0,-1,1768793773.1602173
1768793773168.0298,1361.904761904762,,0,-1,1768793773.1680298
1768793773175.8423,1370.6959706959706,,0,-1,1768793773.1758423
1768793773183.6548,1372.161172161172,,0,-1,1768793773.1836548
1768793773191.4673,1372.8937728937728,,0,-1,1768793773.1914673
1768793773199.2798,1375.8241758241757,,0,-1,1768793773.1992798
1768793773207.0923,1374.3589743589744,,0,-1,1768793773.2070923
1768793773214.9048,1370.6959706959706,,0,-1,1768793773.2149048
1768793773222.7173,1365.5677655677655,,0,-1,1768793773.2227173
1768793773230.5298,1366.3003663003662,,0,-1,1768793773.2305298
1768793773238.3423,1363.3699633699632,,0,-1,1768793773.2383423
1768793773246.1548,1364.8351648351647,,0,-1,1768793773.2461548
1768793773253.9673,1361.1721611721612,,0,-1,1768793773.2539673
1768793773261.7798,1353.8461538461538,,0,-1,1768793773.2617798
1768793773269.5923,1350.18315018315,,0,-1,1768793773.2695923
1768793773277.4048,1347.985347985348,,0,-1,1768793773.2774048
1768793773285.2173,1342.124542124542,,0,-1,1768793773.2852173
1768793773293.0298,1342.124542124542,,0,-1,1768793773.2930298
1768793773300.8423,1337.7289377289376,,0,-1,1768793773.3008423
1768793773308.6548,1337.7289377289376,,0,-1,1768793773.3086548
1768793773316.4673,1331.8681318681315,,0,-1,1768793773.3164673
1768793773324.2798,1327.4725274725274,,0,-1,1768793773.3242798
1768793773332.0923,1320.14652014652,,0,-1,1768793773.3320923
1768793773339.9048,1315.018315018315,,0,-1,1768793773.3399048
1768793773347.7173,1307.6923076923076,,0,-1,1768793773.3477173
1768793773355.5298,1301.098901098901,,0,-1,1768793773.3555298
1768793773363.3423,1303.2967032967033,,0,-1,1768793773.3633423
1768793773371.1548,1302.5641025641023,,0,-1,1768793773.3711548
1768793773378.9673,1309.89010989011,,0,-1,1768793773.3789673
1768793773386.7798,1312.8205128205127,,0,-1,1768793773.3867798
1768793773394.5923,1317.216117216117,,0,-1,1768793773.3945923
1768793773402.4048,1318.6813186813183,,0,-1,1768793773.4024048
1768793773410.2173,1321.6117216117216,,0,-1,1768793773.4102173
1768793773418.0298,1330.4029304029302,,0,-1,1768793773.4180298
1768793773425.8423,1336.263736263736,,0,-1,1768793773.4258423
1768793773433.6548,1350.18315018315,,0,-1,1768793773.4336548
1768793773441.4673,1361.1721611721612,,0,-1,1768793773.4414673
1768793773449.2798,1378.7545787545787,,0,-1,1768793773.4492798
1768793773457.0923,1391.2087912087911,,0,-1,1768793773.4570923
1768793773464.9048,1407.3260073260071,,0,-1,1768793773.4649048
1768793773472.7173,1415.3846153846152,,0,-1,1768793773.4727173
1768793773480.5298,1424.175824175824,,0,-1,1768793773.4805298
1768793773488.3423,1436.6300366300366,,0,-1,1768793773.4883423
1768793773496.1548,1443.956043956044,,0,-1,1768793773.4961548
1768793773503.9673,1455.6776556776556,,0,-1,1768793773.5039673
1768793773511.7798,1466.6666666666663,,0,-1,1768793773.5117798
1768793773519.5923,1480.5860805860805,,0,-1,1768793773.5195923
1768793773527.4048,1495.970695970696,,0,-1,1768793773.5274048
1768793773535.2173,1506.227106227106,,0,-1,1768793773.5352173
1768793773543.0298,1517.216117216117,,0,-1,1768793773.5430298
1768793773550.8423,1522.3443223443223,,0,-1,1768793773.5508423
1768793773558.6548,1529.6703296703297,,0,-1,1768793773.5586548
1768793773566.4673,1529.6703296703297,,0,-1,1768793773.5664673
1768793773574.2798,1531.135531135531,,0,-1,1768793773.5742798
1768793773582.0923,1526.739926739927,,0,-1,1768793773.5820923
1768793773589.9048,1526.007326007326,,0,-1,1768793773.5899048
1768793773597.7173,1523.8095238095236,,0,-1,1768793773.5977173
1768793773605.5298,1520.8791208791208,,0,-1,1768793773.6055298
1768793773613.3423,1521.6117216117216,,0,-1,1768793773.6133423
1768793773621.1548,1520.8791208791208,,0,-1,1768793773.6211548
1768793773628.9673,1519.4139194139193,,0,-1,1768793773.6289673
1768793773636.7798,1522.3443223443223,,0,-1,1768793773.6367798
1768793773644.5923,1520.14652014652,,0,-1,1768793773.6445923
1768793773652.4048,1523.0769230769229,,0,-1,1768793773.6524048
1768793773660.2173,1521.6117216117216,,0,-1,1768793773.6602173
1768793773668.0298,1521.6117216117216,,0,-1,1768793773.6680298
1768793773675.8423,1525.2747252747251,,0,-1,1768793773.6758423
1768793773683.6548,1521.6117216117216,,0,-1,1768793773.6836548
1768793773691.4673,1517.216117216117,,0,-1,1768793773.6914673
1768793773699.2798,1510.6227106227104,,0,-1,1768793773.6992798
1768793773707.0923,1504.7619047619046,,0,-1,1768793773.7070923
1768793773714.9048,1506.9597069597069,,0,-1,1768793773.7149048
1768793773722.7173,1506.227106227106,,0,-1,1768793773.7227173
1768793773730.5298,1499.6336996336995,,0,-1,1768793773.7305298
1768793773738.3423,1495.970695970696,,0,-1,1768793773.7383423
1768793773746.1548,1485.7142857142856,,0,-1,1768793773.7461548
1768793773753.9673,1484.2490842490845,,0,-1,1768793773.7539673
1768793773761.7798,1481.3186813186812,,0,-1,1768793773.7617798
1768793773769.5923,1468.8644688644688,,0,-1,1768793773.7695923
1768793773777.4048,1445.4212454212454,,0,-1,1768793773.7774048
1768793773785.2173,1414.6520146520145,,0,-1,1768793773.7852173
1768793773793.0298,1383.150183150183,,0,-1,1768793773.7930298
1768793773800.8423,1356.043956043956,,0,-1,1768793773.8008423
1768793773808.6548,1339.92673992674,,0,-1,1768793773.8086548
1768793773816.4673,1327.4725274725274,,0,-1,1768793773.8164673
1768793773824.2798,1321.6117216117216,,0,-1,1768793773.8242798
1768793773832.0923,1318.6813186813183,,0,-1,1768793773.8320923
1768793773839.9048,1310.6227106227104,,0,-1,1768793773.8399048
1768793773847.7173,1308.4249084249084,,0,-1,1768793773.8477173
1768793773855.5298,1305.4945054945051,,0,-1,1768793773.8555298
1768793773863.3423,1304.0293040293038,,0,-1,1768793773.8633423
1768793773871.1548,1311.3553113553112,,0,-1,1768793773.8711548
1768793773878.9673,1322.3443223443223,,0,-1,1768793773.8789673
1768793773886.7798,1333.3333333333333,,0,-1,1768793773.8867798
1768793773894.5923,1345.054945054945,,0,-1,1768793773.8945923
1768793773902.4048,1357.5091575091574,,0,-1,1768793773.9024048
1768793773910.2173,1366.3003663003662,,0,-1,1768793773.9102173
1768793773918.0298,1372.8937728937728,,0,-1,1768793773.9180298
1768793773925.8423,1370.6959706959706,,0,-1,1768793773.9258423
1768793773933.6548,1364.8351648351647,,0,-1,1768793773.9336548
1768793773941.4673,1358.241758241758,,0,-1,1768793773.9414673
1768793773949.2798,1353.8461538461538,,0,-1,1768793773.9492798
1768793773957.0923,1347.985347985348,,0,-1,1768793773.9570923
1768793773964.9048,1340.6593406593406,,0,-1,1768793773.9649048
1768793773972.7173,1337.7289377289376,,0,-1,1768793773.9727173
1768793773980.5298,1338.4615384615383,,0,-1,1768793773.9805298
1768793773988.3423,1336.9963369963368,,0,-1,1768793773.9883423
1768793773996.1548,1341.3919413919414,,0,-1,1768793773.9961548
1768793774003.9673,1345.7875457875457,,0,-1,1768793774.0039673
1768793774011.7798,1351.6483516483515,,0,-1,1768793774.0117798
1768793774019.5923,1356.043956043956,,0,-1,1768793774.0195923
1768793774027.4048,1354.5787545787546,,0,-1,1768793774.0274048
1768793774035.2173,1356.043956043956,,0,-1,1768793774.0352173
1768793774043.0298,1361.904761904762,,0,-1,1768793774.0430298
1768793774050.8423,1369.230769230769,,0,-1,1768793774.0508423
1768793774058.6548,1375.091575091575,,0,-1,1768793774.0586548
1768793774066.4673,1382.4175824175825,,0,-1,1768793774.0664673
1768793774074.2798,1391.2087912087911,,0,-1,1768793774.0742798
1768793774082.0923,1394.139194139194,,0,-1,1768793774.0820923
1768793774089.9048,1394.139194139194,,0,-1,1768793774.0899048
1768793774097.7173,1391.941391941392,,0,-1,1768793774.0977173
1768793774105.5298,1386.8131868131868,,0,-1,1768793774.1055298
1768793774113.3423,1381.6849816849815,,0,-1,1768793774.1133423
1768793774121.1548,1374.3589743589744,,0,-1,1768793774.1211548
1768793774128.9673,1364.8351648351647,,0,-1,1768793774.1289673
1768793774136.7798,1360.4395604395604,,0,-1,1768793774.1367798
1768793774144.5923,1358.974358974359,,0,-1,1768793774.1445923
1768793774152.4048,1358.974358974359,,0,-1,1768793774.1524048
1768793774160.2173,1353.8461538461538,,0,-1,1768793774.1602173
1768793774168.0298,1343.5897435897434,,0,-1,1768793774.1680298
1768793774175.8423,1331.8681318681315,,0,-1,1768793774.1758423
1768793774183.6548,1322.3443223443223,,1,2,1768793774.1836548
1768793774191.4673,1313.5531135531137,,1,2,1768793774.1914673
1768793774199.2798,1306.9597069597069,,1,2,1768793774.1992798
1768793774207.0923,1306.227106227106,,1,2,1768793774.2070923
1768793774214.9048,1306.9597069597069,,1,2,1768793774.2149048
1768793774222.7173,1310.6227106227104,,1,2,1768793774.2227173
1768793774230.5298,1315.7509157509155,,1,2,1768793774.2305298
1768793774238.3423,1316.4835164835165,,1,2,1768793774.2383423
1768793774246.1548,1314.2857142857142,,1,2,1768793774.2461548
1768793774253.9673,1312.087912087912,,1,2,1768793774.2539673
1768793774261.7798,1312.8205128205127,,1,2,1768793774.2617798
1768793774269.5923,1317.9487179487178,,1,2,1768793774.2695923
1768793774277.4048,1320.14652014652,,1,2,1768793774.2774048
1768793774285.2173,1328.2051282051282,,1,2,1768793774.2852173
1768793774293.0298,1337.7289377289376,,1,2,1768793774.2930298
1768793774300.8423,1347.985347985348,,1,2,1768793774.3008423
1768793774308.6548,1361.1721611721612,,1,2,1768793774.3086548
1768793774316.4673,1385.3479853479853,,1,2,1768793774.3164673
1768793774324.2798,1408.7912087912086,,1,2,1768793774.3242798
1768793774332.0923,1429.3040293040292,,1,2,1768793774.3320923
1768793774339.9048,1452.014652014652,,1,2,1768793774.3399048
1768793774347.7173,1475.4578754578754,,1,2,1768793774.3477173
1768793774355.5298,1491.5750915750914,,1,2,1768793774.3555298
1768793774363.3423,1504.0293040293038,,1,2,1768793774.3633423
1768793774371.1548,1518.6813186813183,,1,2,1768793774.3711548
1768793774378.9673,1530.4029304029302,,1,2,1768793774.3789673
1768793774386.7798,1539.92673992674,,1,2,1768793774.3867798
1768793774394.5923,1547.985347985348,,1,2,1768793774.3945923
1768793774402.4048,1557.5091575091574,,1,2,1768793774.4024048
1768793774410.2173,1567.032967032967,,1,2,1768793774.4102173
1768793774418.0298,1570.6959706959706,,1,2,1768793774.4180298
1768793774425.8423,1569.9633699633698,,1,2,1768793774.4258423
1768793774433.6548,1571.428571428571,,1,2,1768793774.4336548
1768793774441.4673,1573.6263736263736,,1,2,1768793774.4414673
1768793774449.2798,1572.8937728937728,,1,2,1768793774.4492798
1768793774457.0923,1570.6959706959706,,1,2,1768793774.4570923
1768793774464.9048,1569.9633699633698,,1,2,1768793774.4649048
1768793774472.7173,1568.4981684981683,,1,2,1768793774.4727173
1768793774480.5298,1567.032967032967,,1,2,1768793774.4805298
1768793774488.3423,1563.3699633699632,,1,2,1768793774.4883423
1768793774496.1548,1561.1721611721612,,1,2,1768793774.4961548
1768793774503.9673,1559.7069597069597,,1,2,1768793774.5039673
1768793774511.7798,1554.5787545787546,,1,2,1768793774.5117798
1768793774519.5923,1546.5201465201465,,1,2,1768793774.5195923
1768793774527.4048,1542.124542124542,,1,2,1768793774.5274048
1768793774535.2173,1538.4615384615383,,1,2,1768793774.5352173
1768793774543.0298,1535.5311355311355,,1,2,1768793774.5430298
1768793774550.8423,1528.2051282051282,,1,2,1768793774.5508423
1768793774558.6548,1517.9487179487178,,1,2,1768793774.5586548
1768793774566.4673,1509.1575091575091,,1,2,1768793774.5664673
1768793774574.2798,1503.2967032967033,,1,2,1768793774.5742798
1768793774582.0923,1501.8315018315018,,1,2,1768793774.5820923
1768793774589.9048,1497.4358974358972,,1,2,1768793774.5899048
1768793774597.7173,1490.10989010989,,1,2,1768793774.5977173
1768793774605.5298,1484.2490842490845,,1,2,1768793774.6055298
1768793774613.3423,1479.8534798534797,,1,2,1768793774.6133423
1768793774621.1548,1480.5860805860805,,1,2,1768793774.6211548
1768793774628.9673,1479.8534798534797,,1,2,1768793774.6289673
1768793774636.7798,1473.992673992674,,1,2,1768793774.6367798
1768793774644.5923,1468.8644688644688,,1,2,1768793774.6445923
1768793774652.4048,1465.9340659340658,,1,2,1768793774.6524048
1768793774660.2173,1460.805860805861,,1,2,1768793774.6602173
1768793774668.0298,1454.212454212454,,1,2,1768793774.6680298
1768793774675.8423,1449.8168498168498,,1,2,1768793774.6758423
1768793774683.6548,1446.153846153846,,1,2,1768793774.6836548
1768793774691.4673,1443.2234432234432,,1,2,1768793774.6914673
1768793774699.2798,1436.6300366300366,,1,2,1768793774.6992798
1768793774707.0923,1430.03663003663,,1,2,1768793774.7070923
1768793774714.9048,1424.9084249084249,,1,2,1768793774.7149048
1768793774722.7173,1417.5824175824175,,1,2,1768793774.7227173
1768793774730.5298,1409.5238095238094,,1,2,1768793774.7305298
1768793774738.3423,1406.5934065934066,,1,2,1768793774.7383423
1768793774746.1548,1406.5934065934066,,1,2,1768793774.7461548
1768793774753.9673,1405.128205128205,,1,2,1768793774.7539673
1768793774761.7798,1400.7326007326003,,1,2,1768793774.7617798
1768793774769.5923,1391.941391941392,,1,2,1768793774.7695923
1768793774777.4048,1381.6849816849815,,1,2,1768793774.7774048
1768793774785.2173,1375.8241758241757,,1,2,1768793774.7852173
1768793774793.0298,1371.428571428571,,1,2,1768793774.7930298
1768793774800.8423,1366.3003663003662,,1,2,1768793774.8008423
1768793774808.6548,1367.032967032967,,1,2,1768793774.8086548
1768793774816.4673,1367.7655677655678,,1,2,1768793774.8164673
1768793774824.2798,1368.4981684981683,,1,2,1768793774.8242798
1768793774832.0923,1368.4981684981683,,1,2,1768793774.8320923
1768793774839.9048,1368.4981684981683,,1,2,1768793774.8399048
1768793774847.7173,1369.9633699633698,,1,2,1768793774.8477173
1768793774855.5298,1373.6263736263736,,1,2,1768793774.8555298
1768793774863.3423,1373.6263736263736,,1,2,1768793774.8633423
1768793774871.1548,1375.091575091575,,1,2,1768793774.8711548
1768793774878.9673,1377.2893772893772,,1,2,1768793774.8789673
1768793774886.7798,1380.2197802197802,,1,2,1768793774.8867798
1768793774894.5923,1382.4175824175825,,1,2,1768793774.8945923
1768793774902.4048,1382.4175824175825,,1,2,1768793774.9024048
1768793774910.2173,1379.4871794871794,,1,2,1768793774.9102173
1768793774918.0298,1378.021978021978,,1,2,1768793774.9180298
1768793774925.8423,1377.2893772893772,,1,2,1768793774.9258423
1768793774933.6548,1373.6263736263736,,1,2,1768793774.9336548
1768793774941.4673,1367.7655677655678,,1,2,1768793774.9414673
1768793774949.2798,1359.7069597069597,,1,2,1768793774.9492798
1768793774957.0923,1347.2527472527472,,1,2,1768793774.9570923
1768793774964.9048,1334.7985347985348,,1,2,1768793774.9649048
1768793774972.7173,1324.5421245421244,,1,2,1768793774.9727173
1768793774980.5298,1317.9487179487178,,1,2,1768793774.9805298
1768793774988.3423,1318.6813186813183,,1,2,1768793774.9883423
1768793774996.1548,1321.6117216117216,,1,2,1768793774.9961548
1768793775003.9673,1323.8095238095236,,1,2,1768793775.0039673
1768793775011.7798,1328.937728937729,,1,2,1768793775.0117798
1768793775019.5923,1334.065934065934,,1,2,1768793775.0195923
1768793775027.4048,1340.6593406593406,,1,2,1768793775.0274048
1768793775035.2173,1342.124542124542,,1,2,1768793775.0352173
1768793775043.0298,1340.6593406593406,,1,2,1768793775.0430298
1768793775050.8423,1335.5311355311355,,1,2,1768793775.0508423
1768793775058.6548,1331.8681318681315,,1,2,1768793775.0586548
1768793775066.4673,1329.6703296703297,,1,2,1768793775.0664673
1768793775074.2798,1326.007326007326,,1,2,1768793775.0742798
1768793775082.0923,1319.4139194139193,,1,2,1768793775.0820923
1768793775089.9048,1310.6227106227104,,1,2,1768793775.0899048
1768793775097.7173,1299.6336996336995,,1,2,1768793775.0977173
1768793775105.5298,1288.6446886446886,,1,2,1768793775.1055298
1768793775113.3423,1282.051282051282,,1,2,1768793775.1133423
1768793775121.1548,1282.051282051282,,1,2,1768793775.1211548
1768793775128.9673,1287.179487179487,,1,2,1768793775.1289673
1768793775136.7798,1294.5054945054944,,1,2,1768793775.1367798
1768793775144.5923,1303.2967032967033,,1,2,1768793775.1445923
1768793775152.4048,1311.3553113553112,,1,2,1768793775.1524048
1768793775160.2173,1316.4835164835165,,1,2,1768793775.1602173
1768793775168.0298,1325.2747252747251,,1,2,1768793775.1680298
1768793775175.8423,1339.194139194139,,1,2,1768793775.1758423
1768793775183.6548,1356.7765567765566,,1,2,1768793775.1836548
1768793775191.4673,1378.021978021978,,1,2,1768793775.1914673
1768793775199.2798,1398.5347985347985,,1,2,1768793775.1992798
1768793775207.0923,1419.047619047619,,1,2,1768793775.2070923
1768793775214.9048,1442.4908424908424,,1,2,1768793775.2149048
1768793775222.7173,1464.4688644688645,,1,2,1768793775.2227173
1768793775230.5298,1486.4468864468863,,1,2,1768793775.2305298
1768793775238.3423,1503.2967032967033,,1,2,1768793775.2383423
1768793775246.1548,1512.087912087912,,1,2,1768793775.2461548
1768793775253.9673,1515.018315018315,,1,2,1768793775.2539673
1768793775261.7798,1520.14652014652,,1,2,1768793775.2617798
1768793775269.5923,1524.5421245421244,,1,2,1768793775.2695923
1768793775277.4048,1526.007326007326,,1,2,1768793775.2774048
1768793775285.2173,1526.739926739927,,1,2,1768793775.2852173
1768793775293.0298,1522.3443223443223,,1,2,1768793775.2930298
1768793775300.8423,1516.4835164835165,,1,2,1768793775.3008423
1768793775308.6548,1508.4249084249084,,1,2,1768793775.3086548
1768793775316.4673,1502.5641025641023,,1,2,1768793775.3164673
1768793775324.2798,1495.2380952380952,,1,2,1768793775.3242798
1768793775332.0923,1490.10989010989,,1,2,1768793775.3320923
1768793775339.9048,1483.5164835164835,,1,2,1768793775.3399048
1768793775347.7173,1476.923076923077,,1,2,1768793775.3477173
1768793775355.5298,1471.7948717948716,,1,2,1768793775.3555298
1768793775363.3423,1467.3992673992673,,1,2,1768793775.3633423
1768793775371.1548,1460.805860805861,,1,2,1768793775.3711548
1768793775378.9673,1451.2820512820513,,1,2,1768793775.3789673
1768793775386.7798,1445.4212454212454,,1,2,1768793775.3867798
1768793775394.5923,1443.2234432234432,,1,2,1768793775.3945923
1768793775402.4048,1443.956043956044,,1,2,1768793775.4024048
1768793775410.2173,1441.7582417582416,,1,2,1768793775.4102173
1768793775418.0298,1436.6300366300366,,1,2,1768793775.4180298
1768793775425.8423,1430.03663003663,,1,2,1768793775.4258423
1768793775433.6548,1423.4432234432234,,1,2,1768793775.4336548
1768793775441.4673,1416.8498168498168,,1,2,1768793775.4414673
1768793775449.2798,1411.7216117216117,,1,2,1768793775.4492798
1768793775457.0923,1410.2564102564102,,1,2,1768793775.4570923
1768793775464.9048,1405.8608058608058,,1,2,1768793775.4649048
1768793775472.7173,1399.2673992673992,,1,2,1768793775.4727173
1768793775480.5298,1392.6739926739926,,1,2,1768793775.4805298
1768793775488.3423,1385.3479853479853,,1,2,1768793775.4883423
1768793775496.1548,1377.2893772893772,,1,2,1768793775.4961548
1768793775503.9673,1374.3589743589744,,1,2,1768793775.5039673
1768793775511.7798,1375.8241758241757,,1,2,1768793775.5117798
1768793775519.5923,1378.021978021978,,1,2,1768793775.5195923
1768793775527.4048,1376.5567765567764,,1,2,1768793775.5274048
1768793775535.2173,1368.4981684981683,,1,2,1768793775.5352173
1768793775543.0298,1357.5091575091574,,1,2,1768793775.5430298
1768793775550.8423,1351.6483516483515,,1,2,1768793775.5508423
1768793775558.6548,1348.7179487179487,,1,2,1768793775.5586548
1768793775566.4673,1347.2527472527472,,1,2,1768793775.5664673
1768793775574.2798,1345.7875457875457,,1,2,1768793775.5742798
1768793775582.0923,1350.18315018315,,1,2,1768793775.5820923
1768793775589.9048,1351.6483516483515,,1,2,1768793775.5899048
1768793775597.7173,1353.8461538461538,,1,2,1768793775.5977173
1768793775605.5298,1355.311355311355,,1,2,1768793775.6055298
1768793775613.3423,1353.8461538461538,,1,2,1768793775.6133423
1768793775621.1548,1347.985347985348,,1,2,1768793775.6211548
1768793775628.9673,1341.3919413919414,,1,2,1768793775.6289673
1768793775636.7798,1331.135531135531,,1,2,1768793775.6367798
1768793775644.5923,1320.8791208791208,,1,2,1768793775.6445923
1768793775652.4048,1312.8205128205127,,1,2,1768793775.6524048
1768793775660.2173,1306.9597069597069,,1,2,1768793775.6602173
1768793775668.0298,1298.9010989010987,,1,2,1768793775.6680298
1768793775675.8423,1292.3076923076922,,1,2,1768793775.6758423
1768793775683.6548,1284.9816849816848,,1,2,1768793775.6836548
1768793775691.4673,1280.5860805860805,,1,2,1768793775.6914673
1768793775699.2798,1275.4578754578754,,1,2,1768793775.6992798
1768793775707.0923,1273.260073260073,,1,2,1768793775.7070923
1768793775714.9048,1271.7948717948716,,1,2,1768793775.7149048
1768793775722.7173,1271.062271062271,,1,2,1768793775.7227173
1768793775730.5298,1268.131868131868,,1,2,1768793775.7305298
1768793775738.3423,1263.7362637362637,,1,2,1768793775.7383423
1768793775746.1548,1260.07326007326,,1,2,1768793775.7461548
1768793775753.9673,1257.875457875458,,1,2,1768793775.7539673
1768793775761.7798,1254.9450549450548,,1,2,1768793775.7617798
1768793775769.5923,1250.5494505494505,,1,2,1768793775.7695923
1768793775777.4048,1244.688644688645,,1,2,1768793775.7774048
1768793775785.2173,1238.8278388278388,,1,2,1768793775.7852173
1768793775793.0298,1235.8974358974358,,1,2,1768793775.7930298
1768793775800.8423,1238.095238095238,,1,2,1768793775.8008423
1768793775808.6548,1245.4212454212454,,1,2,1768793775.8086548
1768793775816.4673,1250.5494505494505,,1,2,1768793775.8164673
1768793775824.2798,1250.5494505494505,,1,2,1768793775.8242798
1768793775832.0923,1250.5494505494505,,1,2,1768793775.8320923
1768793775839.9048,1249.8168498168498,,1,2,1768793775.8399048
1768793775847.7173,1247.6190476190477,,1,2,1768793775.8477173
1768793775855.5298,1243.2234432234432,,1,2,1768793775.8555298
1768793775863.3423,1238.095238095238,,1,2,1768793775.8633423
1768793775871.1548,1232.2344322344322,,1,2,1768793775.8711548
1768793775878.9673,1227.8388278388277,,1,2,1768793775.8789673
1768793775886.7798,1223.4432234432234,,1,2,1768793775.8867798
1768793775894.5923,1219.7802197802198,,1,2,1768793775.8945923
1768793775902.4048,1214.6520146520145,,1,2,1768793775.9024048
1768793775910.2173,1210.989010989011,,1,2,1768793775.9102173
1768793775918.0298,1207.3260073260074,,1,2,1768793775.9180298
1768793775925.8423,1201.4652014652013,,1,2,1768793775.9258423
1768793775933.6548,1189.7435897435896,,1,2,1768793775.9336548
1768793775941.4673,1175.8241758241757,,1,2,1768793775.9414673
1768793775949.2798,1159.7069597069597,,1,2,1768793775.9492798
1768793775957.0923,1140.6593406593406,,1,2,1768793775.9570923
1768793775964.9048,1118.6813186813183,,1,2,1768793775.9649048
1768793775972.7173,1095.2380952380952,,1,2,1768793775.9727173
1768793775980.5298,1075.4578754578754,,1,2,1768793775.9805298
1768793775988.3423,1060.07326007326,,1,2,1768793775.9883423
1768793775996.1548,1049.084249084249,,1,2,1768793775.9961548
1768793776003.9673,1042.4908424908424,,1,2,1768793776.0039673
1768793776011.7798,1041.0256410256409,,1,2,1768793776.0117798
1768793776019.5923,1048.3516483516482,,1,2,1768793776.0195923
1768793776027.4048,1064.4688644688645,,1,2,1768793776.0274048
1768793776035.2173,1085.7142857142856,,1,2,1768793776.0352173
1768793776043.0298,1109.1575091575091,,1,2,1768793776.0430298
1768793776050.8423,1132.6007326007325,,1,2,1768793776.0508423
1768793776058.6548,1158.241758241758,,1,2,1768793776.0586548
1768793776066.4673,1184.6153846153843,,1,2,1768793776.0664673
1768793776074.2798,1208.7912087912086,,1,2,1768793776.0742798
1768793776082.0923,1232.2344322344322,,1,2,1768793776.0820923
1768793776089.9048,1255.6776556776556,,1,2,1768793776.0899048
1768793776097.7173,1279.8534798534797,,1,2,1768793776.0977173
1768793776105.5298,1302.5641025641023,,1,2,1768793776.1055298
1768793776113.3423,1320.8791208791208,,1,2,1768793776.1133423
1768793776121.1548,1336.9963369963368,,1,2,1768793776.1211548
1768793776128.9673,1349.4505494505493,,1,2,1768793776.1289673
1768793776136.7798,1359.7069597069597,,1,2,1768793776.1367798
1768793776144.5923,1369.230769230769,,1,2,1768793776.1445923
1768793776152.4048,1379.4871794871794,,1,2,1768793776.1524048
1768793776160.2173,1389.7435897435896,,1,2,1768793776.1602173
1768793776168.0298,1400.7326007326003,,1,2,1768793776.1680298
1768793776175.8423,1408.7912087912086,,1,2,1768793776.1758423
1768793776183.6548,1411.7216117216117,,1,2,1768793776.1836548
1768793776191.4673,1409.5238095238094,,1,2,1768793776.1914673
1768793776199.2798,1405.128205128205,,1,2,1768793776.1992798
1768793776207.0923,1399.2673992673992,,1,2,1768793776.2070923
1768793776214.9048,1391.2087912087911,,1,2,1768793776.2149048
1768793776222.7173,1384.6153846153843,,1,2,1768793776.2227173
1768793776230.5298,1377.2893772893772,,1,2,1768793776.2305298
1768793776238.3423,1364.8351648351647,,1,2,1768793776.2383423
1768793776246.1548,1355.311355311355,,1,2,1768793776.2461548
1768793776253.9673,1339.92673992674,,1,2,1768793776.2539673
1768793776261.7798,1330.4029304029302,,1,2,1768793776.2617798
1768793776269.5923,1323.076923076923,,1,2,1768793776.2695923
1768793776277.4048,1317.216117216117,,1,2,1768793776.2774048
1768793776285.2173,1312.8205128205127,,1,2,1768793776.2852173
1768793776293.0298,1309.1575091575091,,1,2,1768793776.2930298
1768793776300.8423,1306.9597069597069,,1,2,1768793776.3008423
1768793776308.6548,1306.9597069597069,,1,2,1768793776.3086548
1768793776316.4673,1306.227106227106,,1,2,1768793776.3164673
1768793776324.2798,1305.4945054945051,,1,2,1768793776.3242798
1768793776332.0923,1307.6923076923076,,1,2,1768793776.3320923
1768793776339.9048,1311.3553113553112,,1,2,1768793776.3399048
1768793776347.7173,1315.018315018315,,1,2,1768793776.3477173
1768793776355.5298,1323.8095238095236,,1,2,1768793776.3555298
1768793776363.3423,1330.4029304029302,,1,2,1768793776.3633423
1768793776371.1548,1332.6007326007325,,1,2,1768793776.3711548
1768793776378.9673,1325.2747252747251,,1,2,1768793776.3789673
1768793776386.7798,1317.216117216117,,1,2,1768793776.3867798
1768793776394.5923,1309.89010989011,,1,2,1768793776.3945923
1768793776402.4048,1306.9597069597069,,1,2,1768793776.4024048
1768793776410.2173,1304.7619047619046,,1,2,1768793776.4102173
1768793776418.0298,1300.3663003663005,,1,2,1768793776.4180298
1768793776425.8423,1298.9010989010987,,1,2,1768793776.4258423
1768793776433.6548,1301.098901098901,,1,2,1768793776.4336548
1768793776441.4673,1302.5641025641023,,1,2,1768793776.4414673
1768793776449.2798,1299.6336996336995,,1,2,1768793776.4492798
1768793776457.0923,1297.4358974358977,,1,2,1768793776.4570923
1768793776464.9048,1295.2380952380952,,1,2,1768793776.4649048
1768793776472.7173,1295.970695970696,,1,2,1768793776.4727173
1768793776480.5298,1298.9010989010987,,1,2,1768793776.4805298
1768793776488.3423,1298.168498168498,,1,2,1768793776.4883423
1768793776496.1548,1293.040293040293,,1,2,1768793776.4961548
1768793776503.9673,1284.2490842490845,,1,2,1768793776.5039673
1768793776511.7798,1278.3882783882782,,1,2,1768793776.5117798
1768793776519.5923,1276.923076923077,,1,2,1768793776.5195923
1768793776527.4048,1276.190476190476,,1,2,1768793776.5274048
1768793776535.2173,1273.992673992674,,1,2,1768793776.5352173
1768793776543.0298,1275.4578754578754,,1,2,1768793776.5430298
1768793776550.8423,1279.120879120879,,1,2,1768793776.5508423
1768793776558.6548,1285.7142857142856,,1,2,1768793776.5586548
1768793776566.4673,1290.8424908424909,,1,2,1768793776.5664673
1768793776574.2798,1294.5054945054944,,1,2,1768793776.5742798
1768793776582.0923,1295.970695970696,,1,2,1768793776.5820923
1768793776589.9048,1297.4358974358977,,1,2,1768793776.5899048
1768793776597.7173,1298.9010989010987,,1,2,1768793776.5977173
1768793776605.5298,1301.8315018315018,,1,2,1768793776.6055298
1768793776613.3423,1305.4945054945051,,1,2,1768793776.6133423
1768793776621.1548,1307.6923076923076,,1,2,1768793776.6211548
1768793776628.9673,1310.6227106227104,,1,2,1768793776.6289673
1768793776636.7798,1310.6227106227104,,1,2,1768793776.6367798
1768793776644.5923,1311.3553113553112,,1,2,1768793776.6445923
1768793776652.4048,1309.89010989011,,1,2,1768793776.6524048
1768793776660.2173,1308.4249084249084,,1,2,1768793776.6602173
1768793776668.0298,1306.9597069597069,,1,2,1768793776.6680298
1768793776675.8423,1305.4945054945051,,1,2,1768793776.6758423
1768793776683.6548,1301.098901098901,,1,2,1768793776.6836548
1768793776691.4673,1294.5054945054944,,1,2,1768793776.6914673
1768793776699.2798,1287.179487179487,,1,2,1768793776.6992798
1768793776707.0923,1281.3186813186812,,1,2,1768793776.7070923
1768793776714.9048,1276.923076923077,,1,2,1768793776.7149048
1768793776722.7173,1270.3296703296703,,1,2,1768793776.7227173
1768793776730.5298,1264.4688644688645,,1,2,1768793776.7305298
1768793776738.3423,1262.2710622710622,,1,2,1768793776.7383423
1768793776746.1548,1259.3406593406592,,1,2,1768793776.7461548
1768793776753.9673,1251.2820512820513,,1,2,1768793776.7539673
1768793776761.7798,1250.5494505494505,,1,2,1768793776.7617798
1768793776769.5923,1246.8864468864467,,1,2,1768793776.7695923
1768793776777.4048,1245.4212454212454,,1,2,1768793776.7774048
1768793776785.2173,1245.4212454212454,,1,2,1768793776.7852173
1768793776793.0298,1247.6190476190477,,1,2,1768793776.7930298
1768793776800.8423,1253.479853479853,,1,2,1768793776.8008423
1768793776808.6548,1263.003663003663,,1,2,1768793776.8086548
1768793776816.4673,1277.6556776556777,,1,2,1768793776.8164673
1768793776824.2798,1296.7032967032967,,1,2,1768793776.8242798
1768793776832.0923,1317.9487179487178,,0,-1,1768793776.8320923
1768793776839.9048,1337.7289377289376,,0,-1,1768793776.8399048
1768793776847.7173,1350.9157509157508,,0,-1,1768793776.8477173
1768793776855.5298,1362.6373626373625,,0,-1,1768793776.8555298
1768793776863.3423,1369.9633699633698,,0,-1,1768793776.8633423
1768793776871.1548,1375.091575091575,,0,-1,1768793776.8711548
1768793776878.9673,1379.4871794871794,,0,-1,1768793776.8789673
1768793776886.7798,1383.8827838827838,,0,-1,1768793776.8867798
1768793776894.5923,1391.941391941392,,0,-1,1768793776.8945923
1768793776902.4048,1397.8021978021975,,0,-1,1768793776.9024048
1768793776910.2173,1400.0,,0,-1,1768793776.9102173
1768793776918.0298,1398.5347985347985,,0,-1,1768793776.9180298
1768793776925.8423,1394.139194139194,,0,-1,1768793776.9258423
1768793776933.6548,1389.0109890109889,,0,-1,1768793776.9336548
1768793776941.4673,1387.5457875457876,,0,-1,1768793776.9414673
1768793776949.2798,1389.0109890109889,,0,-1,1768793776.9492798
1768793776957.0923,1389.7435897435896,,0,-1,1768793776.9570923
1768793776964.9048,1389.7435897435896,,0,-1,1768793776.9649048
1768793776972.7173,1391.941391941392,,0,-1,1768793776.9727173
1768793776980.5298,1392.6739926739926,,0,-1,1768793776.9805298
1768793776988.3423,1390.4761904761904,,0,-1,1768793776.9883423
1768793776996.1548,1389.0109890109889,,0,-1,1768793776.9961548
1768793777003.9673,1390.4761904761904,,0,-1,1768793777.0039673
1768793777011.7798,1391.2087912087911,,0,-1,1768793777.0117798
1768793777019.5923,1385.3479853479853,,0,-1,1768793777.0195923
1768793777027.4048,1381.6849816849815,,0,-1,1768793777.0274048
1768793777035.2173,1375.091575091575,,0,-1,1768793777.0352173
1768793777043.0298,1372.161172161172,,0,-1,1768793777.0430298
1768793777050.8423,1370.6959706959706,,0,-1,1768793777.0508423
1768793777058.6548,1363.3699633699632,,0,-1,1768793777.0586548
1768793777066.4673,1356.7765567765566,,0,-1,1768793777.0664673
1768793777074.2798,1354.5787545787546,,0,-1,1768793777.0742798
1768793777082.0923,1350.9157509157508,,0,-1,1768793777.0820923
1768793777089.9048,1342.857142857143,,0,-1,1768793777.0899048
1768793777097.7173,1334.065934065934,,0,-1,1768793777.0977173
1768793777105.5298,1328.937728937729,,0,-1,1768793777.1055298
1768793777113.3423,1322.3443223443223,,0,-1,1768793777.1133423
1768793777121.1548,1312.8205128205127,,0,-1,1768793777.1211548
1768793777128.9673,1306.9597069597069,,0,-1,1768793777.1289673
1768793777136.7798,1304.7619047619046,,0,-1,1768793777.1367798
1768793777144.5923,1304.0293040293038,,0,-1,1768793777.1445923
1768793777152.4048,1304.7619047619046,,0,-1,1768793777.1524048
1768793777160.2173,1307.6923076923076,,0,-1,1768793777.1602173
1768793777168.0298,1308.4249084249084,,0,-1,1768793777.1680298
1768793777175.8423,1304.0293040293038,,0,-1,1768793777.1758423
1768793777183.6548,1301.8315018315018,,0,-1,1768793777.1836548
1768793777191.4673,1298.168498168498,,0,-1,1768793777.1914673
1768793777199.2798,1297.4358974358977,,0,-1,1768793777.1992798
1768793777207.0923,1293.040293040293,,0,-1,1768793777.2070923
1768793777214.9048,1290.10989010989,,0,-1,1768793777.2149048
1768793777222.7173,1291.5750915750914,,0,-1,1768793777.2227173
1768793777230.5298,1292.3076923076922,,0,-1,1768793777.2305298
1768793777238.3423,1292.3076923076922,,0,-1,1768793777.2383423
1768793777246.1548,1296.7032967032967,,0,-1,1768793777.2461548
1768793777253.9673,1303.2967032967033,,0,-1,1768793777.2539673
1768793777261.7798,1304.7619047619046,,0,-1,1768793777.2617798
1768793777269.5923,1308.4249084249084,,0,-1,1768793777.2695923
1768793777277.4048,1312.8205128205127,,0,-1,1768793777.2774048
1768793777285.2173,1312.087912087912,,0,-1,1768793777.2852173
1768793777293.0298,1316.4835164835165,,0,-1,1768793777.2930298
1768793777300.8423,1322.3443223443223,,0,-1,1768793777.3008423
1768793777308.6548,1323.8095238095236,,0,-1,1768793777.3086548
1768793777316.4673,1317.9487179487178,,0,-1,1768793777.3164673
1768793777324.2798,1315.018315018315,,0,-1,1768793777.3242798
1768793777332.0923,1311.3553113553112,,0,-1,1768793777.3320923
1768793777339.9048,1304.7619047619046,,0,-1,1768793777.3399048
1768793777347.7173,1298.9010989010987,,0,-1,1768793777.3477173
1768793777355.5298,1295.2380952380952,,0,-1,1768793777.3555298
1768793777363.3423,1289.3772893772891,,0,-1,1768793777.3633423
1768793777371.1548,1285.7142857142856,,0,-1,1768793777.3711548
1768793777378.9673,1284.2490842490845,,0,-1,1768793777.3789673
1768793777386.7798,1282.7838827838827,,0,-1,1768793777.3867798
1768793777394.5923,1284.9816849816848,,0,-1,1768793777.3945923
1768793777402.4048,1287.9120879120878,,0,-1,1768793777.4024048
1768793777410.2173,1286.4468864468863,,0,-1,1768793777.4102173
1768793777418.0298,1285.7142857142856,,0,-1,1768793777.4180298
1768793777425.8423,1288.6446886446886,,0,-1,1768793777.4258423
1768793777433.6548,1289.3772893772891,,0,-1,1768793777.4336548
1768793777441.4673,1289.3772893772891,,0,-1,1768793777.4414673
1768793777449.2798,1289.3772893772891,,0,-1,1768793777.4492798
1768793777457.0923,1290.8424908424909,,0,-1,1768793777.4570923
1768793777464.9048,1290.8424908424909,,0,-1,1768793777.4649048
1768793777472.7173,1286.4468864468863,,0,-1,1768793777.4727173
1768793777480.5298,1283.5164835164835,,0,-1,1768793777.4805298
1768793777488.3423,1279.120879120879,,0,-1,1768793777.4883423
1768793777496.1548,1269.5970695970695,,0,-1,1768793777.4961548
1768793777503.9673,1263.7362637362637,,0,-1,1768793777.5039673
1768793777511.7798,1262.2710622710622,,0,-1,1768793777.5117798
1768793777519.5923,1260.805860805861,,0,-1,1768793777.5195923
1768793777527.4048,1257.875457875458,,0,-1,1768793777.5274048
1768793777535.2173,1260.07326007326,,0,-1,1768793777.5352173
1768793777543.0298,1263.7362637362637,,0,-1,1768793777.5430298
1768793777550.8423,1264.4688644688645,,0,-1,1768793777.5508423
1768793777558.6548,1268.8644688644688,,0,-1,1768793777.5586548
1768793777566.4673,1268.131868131868,,0,-1,1768793777.5664673
1768793777574.2798,1268.8644688644688,,0,-1,1768793777.5742798
1768793777582.0923,1274.7252747252746,,0,-1,1768793777.5820923
1768793777589.9048,1280.5860805860805,,0,-1,1768793777.5899048
1768793777597.7173,1289.3772893772891,,0,-1,1768793777.5977173
1768793777605.5298,1305.4945054945051,,0,-1,1768793777.6055298
1768793777613.3423,1315.7509157509155,,0,-1,1768793777.6133423
1768793777621.1548,1327.4725274725274,,0,-1,1768793777.6211548
1768793777628.9673,1338.4615384615383,,0,-1,1768793777.6289673
1768793777636.7798,1343.5897435897434,,0,-1,1768793777.6367798
1768793777644.5923,1356.043956043956,,0,-1,1768793777.6445923
1768793777652.4048,1367.7655677655678,,0,-1,1768793777.6524048
1768793777660.2173,1382.4175824175825,,0,-1,1768793777.6602173
1768793777668.0298,1391.941391941392,,0,-1,1768793777.6680298
1768793777675.8423,1398.5347985347985,,0,-1,1768793777.6758423
1768793777683.6548,1402.197802197802,,0,-1,1768793777.6836548
1768793777691.4673,1400.0,,0,-1,1768793777.6914673
1768793777699.2798,1402.9304029304028,,0,-1,1768793777.6992798
1768793777707.0923,1400.7326007326003,,0,-1,1768793777.7070923
1768793777714.9048,1402.9304029304028,,0,-1,1768793777.7149048
1768793777722.7173,1404.3956043956043,,0,-1,1768793777.7227173
1768793777730.5298,1402.197802197802,,0,-1,1768793777.7305298
1768793777738.3423,1404.3956043956043,,0,-1,1768793777.7383423
1768793777746.1548,1402.9304029304028,,0,-1,1768793777.7461548
1768793777753.9673,1400.0,,0,-1,1768793777.7539673
1768793777761.7798,1397.069597069597,,0,-1,1768793777.7617798
1768793777769.5923,1391.2087912087911,,0,-1,1768793777.7695923
1768793777777.4048,1391.2087912087911,,0,-1,1768793777.7774048
1768793777785.2173,1391.941391941392,,0,-1,1768793777.7852173
1768793777793.0298,1390.4761904761904,,0,-1,1768793777.7930298
1768793777800.8423,1395.6043956043954,,0,-1,1768793777.8008423
1768793777808.6548,1400.7326007326003,,0,-1,1768793777.8086548
1768793777816.4673,1404.3956043956043,,0,-1,1768793777.8164673
1768793777824.2798,1410.989010989011,,0,-1,1768793777.8242798
1768793777832.0923,1408.7912087912086,,0,-1,1768793777.8320923
1768793777839.9048,1404.3956043956043,,0,-1,1768793777.8399048
1768793777847.7173,1398.5347985347985,,0,-1,1768793777.8477173
1768793777855.5298,1391.2087912087911,,0,-1,1768793777.8555298
1768793777863.3423,1392.6739926739926,,0,-1,1768793777.8633423
1768793777871.1548,1391.2087912087911,,0,-1,1768793777.8711548
1768793777878.9673,1389.0109890109889,,0,-1,1768793777.8789673
1768793777886.7798,1388.278388278388,,0,-1,1768793777.8867798
1768793777894.5923,1381.6849816849815,,0,-1,1768793777.8945923
1768793777902.4048,1375.8241758241757,,0,-1,1768793777.9024048
1768793777910.2173,1371.428571428571,,0,-1,1768793777.9102173
1768793777918.0298,1362.6373626373625,,0,-1,1768793777.9180298
1768793777925.8423,1360.4395604395604,,0,-1,1768793777.9258423
1768793777933.6548,1353.113553113553,,0,-1,1768793777.9336548
1768793777941.4673,1350.18315018315,,0,-1,1768793777.9414673
1768793777949.2798,1347.985347985348,,0,-1,1768793777.9492798
1768793777957.0923,1343.5897435897434,,0,-1,1768793777.9570923
1768793777964.9048,1339.92673992674,,0,-1,1768793777.9649048
1768793777972.7173,1340.6593406593406,,0,-1,1768793777.9727173
1768793777980.5298,1343.5897435897434,,0,-1,1768793777.9805298
1768793777988.3423,1349.4505494505493,,0,-1,1768793777.9883423
1768793777996.1548,1354.5787545787546,,0,-1,1768793777.9961548
1768793778003.9673,1355.311355311355,,0,-1,1768793778.0039673
1768793778011.7798,1356.7765567765566,,0,-1,1768793778.0117798
1768793778019.5923,1349.4505494505493,,0,-1,1768793778.0195923
1768793778027.4048,1347.2527472527472,,0,-1,1768793778.0274048
1768793778035.2173,1336.9963369963368,,0,-1,1768793778.0352173
1768793778043.0298,1329.6703296703297,,0,-1,1768793778.0430298
1768793778050.8423,1318.6813186813183,,0,-1,1768793778.0508423
1768793778058.6548,1314.2857142857142,,0,-1,1768793778.0586548
1768793778066.4673,1310.6227106227104,,0,-1,1768793778.0664673
1768793778074.2798,1310.6227106227104,,0,-1,1768793778.0742798
1768793778082.0923,1306.9597069597069,,0,-1,1768793778.0820923
1768793778089.9048,1308.4249084249084,,0,-1,1768793778.0899048
1768793778097.7173,1304.7619047619046,,0,-1,1768793778.0977173
1768793778105.5298,1308.4249084249084,,0,-1,1768793778.1055298
1768793778113.3423,1311.3553113553112,,0,-1,1768793778.1133423
1768793778121.1548,1313.5531135531137,,0,-1,1768793778.1211548
1768793778128.9673,1323.8095238095236,,0,-1,1768793778.1289673
1768793778136.7798,1327.4725274725274,,0,-1,1768793778.1367798
1768793778144.5923,1333.3333333333333,,0,-1,1768793778.1445923
1768793778152.4048,1339.194139194139,,0,-1,1768793778.1524048
1768793778160.2173,1339.194139194139,,0,-1,1768793778.1602173
1768793778168.0298,1338.4615384615383,,0,-1,1768793778.1680298
1768793778175.8423,1333.3333333333333,,0,-1,1768793778.1758423
1768793778183.6548,1331.135531135531,,0,-1,1768793778.1836548
1768793778191.4673,1326.007326007326,,0,-1,1768793778.1914673
1768793778199.2798,1326.007326007326,,0,-1,1768793778.1992798
1768793778207.0923,1320.8791208791208,,0,-1,1768793778.2070923
1768793778214.9048,1320.8791208791208,,0,-1,1768793778.2149048
1768793778222.7173,1317.9487179487178,,0,-1,1768793778.2227173
1768793778230.5298,1322.3443223443223,,0,-1,1768793778.2305298
1768793778238.3423,1323.076923076923,,0,-1,1768793778.2383423
1768793778246.1548,1327.4725274725274,,0,-1,1768793778.2461548
1768793778253.9673,1327.4725274725274,,0,-1,1768793778.2539673
1768793778261.7798,1328.937728937729,,0,-1,1768793778.2617798
1768793778269.5923,1328.2051282051282,,0,-1,1768793778.2695923
1768793778277.4048,1331.135531135531,,0,-1,1768793778.2774048
1768793778285.2173,1326.739926739927,,0,-1,1768793778.2852173
1768793778293.0298,1326.007326007326,,0,-1,1768793778.2930298
1768793778300.8423,1320.8791208791208,,0,-1,1768793778.3008423
1768793778308.6548,1321.6117216117216,,0,-1,1768793778.3086548
1768793778316.4673,1315.7509157509155,,0,-1,1768793778.3164673
1768793778324.2798,1312.8205128205127,,0,-1,1768793778.3242798
1768793778332.0923,1307.6923076923076,,0,-1,1768793778.3320923
1768793778339.9048,1299.6336996336995,,0,-1,1768793778.3399048
1768793778347.7173,1295.2380952380952,,0,-1,1768793778.3477173
1768793778355.5298,1287.9120879120878,,0,-1,1768793778.3555298
1768793778363.3423,1280.5860805860805,,0,-1,1768793778.3633423
1768793778371.1548,1276.190476190476,,0,-1,1768793778.3711548
1768793778378.9673,1265.2014652014652,,0,-1,1768793778.3789673
1768793778386.7798,1257.875457875458,,0,-1,1768793778.3867798
1768793778394.5923,1256.4102564102564,,0,-1,1768793778.3945923
1768793778402.4048,1254.9450549450548,,0,-1,1768793778.4024048
1768793778410.2173,1261.5384615384614,,0,-1,1768793778.4102173
1768793778418.0298,1265.2014652014652,,0,-1,1768793778.4180298
1768793778425.8423,1267.3992673992673,,0,-1,1768793778.4258423
1768793778433.6548,1274.7252747252746,,0,-1,1768793778.4336548
1768793778441.4673,1276.923076923077,,0,-1,1768793778.4414673
1768793778449.2798,1284.9816849816848,,0,-1,1768793778.4492798
1768793778457.0923,1292.3076923076922,,0,-1,1768793778.4570923
1768793778464.9048,1301.8315018315018,,0,-1,1768793778.4649048
1768793778472.7173,1312.8205128205127,,0,-1,1768793778.4727173
1768793778480.5298,1320.8791208791208,,0,-1,1768793778.4805298
1768793778488.3423,1334.7985347985348,,0,-1,1768793778.4883423
1768793778496.1548,1347.2527472527472,,0,-1,1768793778.4961548
1768793778503.9673,1367.032967032967,,0,-1,1768793778.5039673
1768793778511.7798,1380.2197802197802,,0,-1,1768793778.5117798
1768793778519.5923,1396.3369963369962,,0,-1,1768793778.5195923
1768793778527.4048,1403.6630036630036,,0,-1,1768793778.5274048
1768793778535.2173,1416.8498168498168,,0,-1,1768793778.5352173
1768793778543.0298,1426.3736263736262,,0,-1,1768793778.5430298
1768793778550.8423,1435.164835164835,,0,-1,1768793778.5508423
1768793778558.6548,1438.8278388278388,,0,-1,1768793778.5586548
1768793778566.4673,1439.5604395604394,,0,-1,1768793778.5664673
1768793778574.2798,1443.2234432234432,,0,-1,1768793778.5742798
1768793778582.0923,1441.0256410256409,,0,-1,1768793778.5820923
1768793778589.9048,1439.5604395604394,,0,-1,1768793778.5899048
1768793778597.7173,1437.362637362637,,0,-1,1768793778.5977173
1768793778605.5298,1429.3040293040292,,0,-1,1768793778.6055298
1768793778613.3423,1424.175824175824,,0,-1,1768793778.6133423
1768793778621.1548,1423.4432234432234,,0,-1,1768793778.6211548
1768793778628.9673,1422.7106227106226,,0,-1,1768793778.6289673
1768793778636.7798,1421.245421245421,,0,-1,1768793778.6367798
1768793778644.5923,1427.106227106227,,0,-1,1768793778.6445923
1768793778652.4048,1429.3040293040292,,0,-1,1768793778.6524048
1768793778660.2173,1435.164835164835,,0,-1,1768793778.6602173
1768793778668.0298,1444.688644688645,,0,-1,1768793778.6680298
1768793778675.8423,1453.479853479853,,0,-1,1768793778.6758423
1768793778683.6548,1455.6776556776556,,0,-1,1768793778.6836548
1768793778691.4673,1463.003663003663,,0,-1,1768793778.6914673
1768793778699.2798,1462.2710622710622,,0,-1,1768793778.6992798
1768793778707.0923,1461.5384615384614,,0,-1,1768793778.7070923
1768793778714.9048,1457.875457875458,,0,-1,1768793778.7149048
1768793778722.7173,1450.5494505494505,,0,-1,1768793778.7227173
1768793778730.5298,1442.4908424908424,,0,-1,1768793778.7305298
1768793778738.3423,1435.164835164835,,0,-1,1768793778.7383423
1768793778746.1548,1430.7692307692307,,0,-1,1768793778.7461548
1768793778753.9673,1421.9780219780218,,0,-1,1768793778.7539673
1768793778761.7798,1415.3846153846152,,0,-1,1768793778.7617798
1768793778769.5923,1406.5934065934066,,0,-1,1768793778.7695923
1768793778777.4048,1402.197802197802,,0,-1,1768793778.7774048
1768793778785.2173,1398.5347985347985,,0,-1,1768793778.7852173
1768793778793.0298,1397.069597069597,,0,-1,1768793778.7930298
1768793778800.8423,1399.2673992673992,,0,-1,1768793778.8008423
1768793778808.6548,1402.197802197802,,0,-1,1768793778.8086548
1768793778816.4673,1401.4652014652013,,0,-1,1768793778.8164673
1768793778824.2798,1402.9304029304028,,0,-1,1768793778.8242798
1768793778832.0923,1407.3260073260071,,0,-1,1768793778.8320923
1768793778839.9048,1409.5238095238094,,0,-1,1768793778.8399048
1768793778847.7173,1408.7912087912086,,0,-1,1768793778.8477173
1768793778855.5298,1404.3956043956043,,0,-1,1768793778.8555298
1768793778863.3423,1397.8021978021975,,0,-1,1768793778.8633423
1768793778871.1548,1387.5457875457876,,0,-1,1768793778.8711548
1768793778878.9673,1383.150183150183,,0,-1,1768793778.8789673
1768793778886.7798,1377.2893772893772,,0,-1,1768793778.8867798
1768793778894.5923,1378.021978021978,,0,-1,1768793778.8945923
1768793778902.4048,1382.4175824175825,,0,-1,1768793778.9024048
1768793778910.2173,1381.6849816849815,,0,-1,1768793778.9102173
1768793778918.0298,1380.2197802197802,,0,-1,1768793778.9180298
1768793778925.8423,1377.2893772893772,,0,-1,1768793778.9258423
1768793778933.6548,1372.161172161172,,0,-1,1768793778.9336548
1768793778941.4673,1373.6263736263736,,0,-1,1768793778.9414673
1768793778949.2798,1375.8241758241757,,0,-1,1768793778.9492798
1768793778957.0923,1375.091575091575,,0,-1,1768793778.9570923
1768793778964.9048,1378.7545787545787,,0,-1,1768793778.9649048
1768793778972.7173,1378.7545787545787,,0,-1,1768793778.9727173
1768793778980.5298,1372.8937728937728,,0,-1,1768793778.9805298
1768793778988.3423,1367.032967032967,,0,-1,1768793778.9883423
1768793778996.1548,1358.241758241758,,0,-1,1768793778.9961548
1768793779003.9673,1344.3223443223442,,0,-1,1768793779.0039673
1768793779011.7798,1331.135531135531,,0,-1,1768793779.0117798
1768793779019.5923,1324.5421245421244,,0,-1,1768793779.0195923
1768793779027.4048,1315.7509157509155,,0,-1,1768793779.0274048
1768793779035.2173,1311.3553113553112,,0,-1,1768793779.0352173
1768793779043.0298,1313.5531135531137,,0,-1,1768793779.0430298
1768793779050.8423,1316.4835164835165,,0,-1,1768793779.0508423
1768793779058.6548,1319.4139194139193,,0,-1,1768793779.0586548
1768793779066.4673,1325.2747252747251,,0,-1,1768793779.0664673
1768793779074.2798,1331.135531135531,,0,-1,1768793779.0742798
1768793779082.0923,1334.7985347985348,,0,-1,1768793779.0820923
1768793779089.9048,1338.4615384615383,,0,-1,1768793779.0899048
1768793779097.7173,1343.5897435897434,,0,-1,1768793779.0977173
1768793779105.5298,1344.3223443223442,,0,-1,1768793779.1055298
1768793779113.3423,1343.5897435897434,,0,-1,1768793779.1133423
1768793779121.1548,1342.857142857143,,0,-1,1768793779.1211548
1768793779128.9673,1340.6593406593406,,0,-1,1768793779.1289673
1768793779136.7798,1339.194139194139,,0,-1,1768793779.1367798
1768793779144.5923,1340.6593406593406,,0,-1,1768793779.1445923
1768793779152.4048,1340.6593406593406,,0,-1,1768793779.1524048
1768793779160.2173,1339.194139194139,,0,-1,1768793779.1602173
1768793779168.0298,1337.7289377289376,,0,-1,1768793779.1680298
1768793779175.8423,1336.263736263736,,0,-1,1768793779.1758423
1768793779183.6548,1332.6007326007325,,0,-1,1768793779.1836548
1768793779191.4673,1328.2051282051282,,0,-1,1768793779.1914673
1768793779199.2798,1327.4725274725274,,0,-1,1768793779.1992798
1768793779207.0923,1326.739926739927,,0,-1,1768793779.2070923
1768793779214.9048,1322.3443223443223,,0,-1,1768793779.2149048
1768793779222.7173,1320.8791208791208,,0,-1,1768793779.2227173
1768793779230.5298,1323.076923076923,,0,-1,1768793779.2305298
1768793779238.3423,1319.4139194139193,,0,-1,1768793779.2383423
1768793779246.1548,1315.7509157509155,,0,-1,1768793779.2461548
1768793779253.9673,1317.216117216117,,0,-1,1768793779.2539673
1768793779261.7798,1315.018315018315,,0,-1,1768793779.2617798
1768793779269.5923,1313.5531135531137,,0,-1,1768793779.2695923
1768793779277.4048,1315.7509157509155,,0,-1,1768793779.2774048
1768793779285.2173,1313.5531135531137,,0,-1,1768793779.2852173
1768793779293.0298,1312.087912087912,,0,-1,1768793779.2930298
1768793779300.8423,1309.89010989011,,0,-1,1768793779.3008423
1768793779308.6548,1311.3553113553112,,0,-1,1768793779.3086548
1768793779316.4673,1309.89010989011,,0,-1,1768793779.3164673
1768793779324.2798,1313.5531135531137,,0,-1,1768793779.3242798
1768793779332.0923,1317.216117216117,,0,-1,1768793779.3320923
1768793779339.9048,1316.4835164835165,,0,-1,1768793779.3399048
1768793779347.7173,1309.89010989011,,0,-1,1768793779.3477173
1768793779355.5298,1301.098901098901,,0,-1,1768793779.3555298
1768793779363.3423,1295.970695970696,,0,-1,1768793779.3633423
1768793779371.1548,1289.3772893772891,,0,-1,1768793779.3711548
1768793779378.9673,1277.6556776556777,,0,-1,1768793779.3789673
1768793779386.7798,1270.3296703296703,,1,3,1768793779.3867798
1768793779394.5923,1268.131868131868,,1,3,1768793779.3945923
1768793779402.4048,1268.131868131868,,1,3,1768793779.4024048
1768793779410.2173,1268.8644688644688,,1,3,1768793779.4102173
1768793779418.0298,1273.260073260073,,1,3,1768793779.4180298
1768793779425.8423,1276.190476190476,,1,3,1768793779.4258423
1768793779433.6548,1279.120879120879,,1,3,1768793779.4336548
1768793779441.4673,1279.8534798534797,,1,3,1768793779.4414673
1768793779449.2798,1281.3186813186812,,1,3,1768793779.4492798
1768793779457.0923,1282.051282051282,,1,3,1768793779.4570923
1768793779464.9048,1283.5164835164835,,1,3,1768793779.4649048
1768793779472.7173,1283.5164835164835,,1,3,1768793779.4727173
1768793779480.5298,1283.5164835164835,,1,3,1768793779.4805298
1768793779488.3423,1282.051282051282,,1,3,1768793779.4883423
1768793779496.1548,1276.923076923077,,1,3,1768793779.4961548
1768793779503.9673,1274.7252747252746,,1,3,1768793779.5039673
1768793779511.7798,1277.6556776556777,,1,3,1768793779.5117798
1768793779519.5923,1284.9816849816848,,1,3,1768793779.5195923
1768793779527.4048,1293.7728937728937,,1,3,1768793779.5274048
1768793779535.2173,1305.4945054945051,,1,3,1768793779.5352173
1768793779543.0298,1318.6813186813183,,1,3,1768793779.5430298
1768793779550.8423,1334.065934065934,,1,3,1768793779.5508423
1768793779558.6548,1350.18315018315,,1,3,1768793779.5586548
1768793779566.4673,1367.7655677655678,,1,3,1768793779.5664673
1768793779574.2798,1388.278388278388,,1,3,1768793779.5742798
1768793779582.0923,1405.8608058608058,,1,3,1768793779.5820923
1768793779589.9048,1420.5128205128203,,1,3,1768793779.5899048
1768793779597.7173,1433.6996336996335,,1,3,1768793779.5977173
1768793779605.5298,1446.153846153846,,1,3,1768793779.6055298
1768793779613.3423,1452.014652014652,,1,3,1768793779.6133423
1768793779621.1548,1454.9450549450548,,1,3,1768793779.6211548
1768793779628.9673,1459.3406593406592,,1,3,1768793779.6289673
1768793779636.7798,1464.4688644688645,,1,3,1768793779.6367798
1768793779644.5923,1469.5970695970695,,1,3,1768793779.6445923
1768793779652.4048,1468.131868131868,,1,3,1768793779.6524048
1768793779660.2173,1465.9340659340658,,1,3,1768793779.6602173
1768793779668.0298,1468.131868131868,,1,3,1768793779.6680298
1768793779675.8423,1469.5970695970695,,1,3,1768793779.6758423
1768793779683.6548,1468.131868131868,,1,3,1768793779.6836548
1768793779691.4673,1473.260073260073,,1,3,1768793779.6914673
1768793779699.2798,1476.190476190476,,1,3,1768793779.6992798
1768793779707.0923,1476.923076923077,,1,3,1768793779.7070923
1768793779714.9048,1482.7838827838827,,1,3,1768793779.7149048
1768793779722.7173,1490.10989010989,,1,3,1768793779.7227173
1768793779730.5298,1493.040293040293,,1,3,1768793779.7305298
1768793779738.3423,1491.5750915750914,,1,3,1768793779.7383423
1768793779746.1548,1489.3772893772891,,1,3,1768793779.7461548
1768793779753.9673,1484.9816849816848,,1,3,1768793779.7539673
1768793779761.7798,1482.7838827838827,,1,3,1768793779.7617798
1768793779769.5923,1478.3882783882782,,1,3,1768793779.7695923
1768793779777.4048,1474.7252747252746,,1,3,1768793779.7774048
1768793779785.2173,1470.3296703296703,,1,3,1768793779.7852173
1768793779793.0298,1470.3296703296703,,1,3,1768793779.7930298
1768793779800.8423,1469.5970695970695,,1,3,1768793779.8008423
1768793779808.6548,1465.201465201465,,1,3,1768793779.8086548
1768793779816.4673,1463.003663003663,,1,3,1768793779.8164673
1768793779824.2798,1461.5384615384614,,1,3,1768793779.8242798
1768793779832.0923,1462.2710622710622,,1,3,1768793779.8320923
1768793779839.9048,1463.7362637362637,,1,3,1768793779.8399048
1768793779847.7173,1465.201465201465,,1,3,1768793779.8477173
1768793779855.5298,1464.4688644688645,,1,3,1768793779.8555298
1768793779863.3423,1460.07326007326,,1,3,1768793779.8633423
1768793779871.1548,1454.212454212454,,1,3,1768793779.8711548
1768793779878.9673,1443.956043956044,,1,3,1768793779.8789673
1768793779886.7798,1432.2344322344322,,1,3,1768793779.8867798
1768793779894.5923,1421.9780219780218,,1,3,1768793779.8945923
1768793779902.4048,1412.4542124542124,,1,3,1768793779.9024048
1768793779910.2173,1404.3956043956043,,1,3,1768793779.9102173
1768793779918.0298,1402.9304029304028,,1,3,1768793779.9180298
1768793779925.8423,1406.5934065934066,,1,3,1768793779.9258423
1768793779933.6548,1410.989010989011,,1,3,1768793779.9336548
1768793779941.4673,1412.4542124542124,,1,3,1768793779.9414673
1768793779949.2798,1418.3150183150185,,1,3,1768793779.9492798
1768793779957.0923,1420.5128205128203,,1,3,1768793779.9570923
1768793779964.9048,1419.047619047619,,1,3,1768793779.9649048
1768793779972.7173,1415.3846153846152,,1,3,1768793779.9727173
1768793779980.5298,1410.2564102564102,,1,3,1768793779.9805298
1768793779988.3423,1400.7326007326003,,1,3,1768793779.9883423
1768793779996.1548,1389.7435897435896,,1,3,1768793779.9961548
1768793780003.9673,1382.4175824175825,,1,3,1768793780.0039673
1768793780011.7798,1376.5567765567764,,1,3,1768793780.0117798
1768793780019.5923,1371.428571428571,,1,3,1768793780.0195923
1768793780027.4048,1365.5677655677655,,1,3,1768793780.0274048
1768793780035.2173,1361.904761904762,,1,3,1768793780.0352173
1768793780043.0298,1358.974358974359,,1,3,1768793780.0430298
1768793780050.8423,1359.7069597069597,,1,3,1768793780.0508423
1768793780058.6548,1364.8351648351647,,1,3,1768793780.0586548
1768793780066.4673,1367.7655677655678,,1,3,1768793780.0664673
1768793780074.2798,1366.3003663003662,,1,3,1768793780.0742798
1768793780082.0923,1367.032967032967,,1,3,1768793780.0820923
1768793780089.9048,1369.230769230769,,1,3,1768793780.0899048
1768793780097.7173,1371.428571428571,,1,3,1768793780.0977173
1768793780105.5298,1376.5567765567764,,1,3,1768793780.1055298
1768793780113.3423,1378.021978021978,,1,3,1768793780.1133423
1768793780121.1548,1377.2893772893772,,1,3,1768793780.1211548
1768793780128.9673,1372.8937728937728,,1,3,1768793780.1289673
1768793780136.7798,1367.032967032967,,1,3,1768793780.1367798
1768793780144.5923,1364.102564102564,,1,3,1768793780.1445923
1768793780152.4048,1363.3699633699632,,1,3,1768793780.1524048
1768793780160.2173,1361.904761904762,,1,3,1768793780.1602173
1768793780168.0298,1360.4395604395604,,1,3,1768793780.1680298
1768793780175.8423,1361.904761904762,,1,3,1768793780.1758423
1768793780183.6548,1361.1721611721612,,1,3,1768793780.1836548
1768793780191.4673,1360.4395604395604,,1,3,1768793780.1914673
1768793780199.2798,1359.7069597069597,,1,3,1768793780.1992798
1768793780207.0923,1360.4395604395604,,1,3,1768793780.2070923
1768793780214.9048,1359.7069597069597,,1,3,1768793780.2149048
1768793780222.7173,1356.7765567765566,,1,3,1768793780.2227173
1768793780230.5298,1352.3809523809523,,1,3,1768793780.2305298
1768793780238.3423,1346.5201465201465,,1,3,1768793780.2383423
1768793780246.1548,1339.92673992674,,1,3,1768793780.2461548
1768793780253.9673,1335.5311355311355,,1,3,1768793780.2539673
1768793780261.7798,1334.065934065934,,1,3,1768793780.2617798
1768793780269.5923,1335.5311355311355,,1,3,1768793780.2695923
1768793780277.4048,1339.194139194139,,1,3,1768793780.2774048
1768793780285.2173,1338.4615384615383,,1,3,1768793780.2852173
1768793780293.0298,1337.7289377289376,,1,3,1768793780.2930298
1768793780300.8423,1338.4615384615383,,1,3,1768793780.3008423
1768793780308.6548,1342.124542124542,,1,3,1768793780.3086548
1768793780316.4673,1345.054945054945,,1,3,1768793780.3164673
1768793780324.2798,1344.3223443223442,,1,3,1768793780.3242798
1768793780332.0923,1345.054945054945,,1,3,1768793780.3320923
1768793780339.9048,1343.5897435897434,,1,3,1768793780.3399048
1768793780347.7173,1340.6593406593406,,1,3,1768793780.3477173
1768793780355.5298,1336.263736263736,,1,3,1768793780.3555298
1768793780363.3423,1330.4029304029302,,1,3,1768793780.3633423
1768793780371.1548,1328.937728937729,,1,3,1768793780.3711548
1768793780378.9673,1327.4725274725274,,1,3,1768793780.3789673
1768793780386.7798,1328.937728937729,,1,3,1768793780.3867798
1768793780394.5923,1326.007326007326,,1,3,1768793780.3945923
1768793780402.4048,1320.14652014652,,1,3,1768793780.4024048
1768793780410.2173,1315.018315018315,,1,3,1768793780.4102173
1768793780418.0298,1309.89010989011,,1,3,1768793780.4180298
1768793780425.8423,1305.4945054945051,,1,3,1768793780.4258423
1768793780433.6548,1299.6336996336995,,1,3,1768793780.4336548
1768793780441.4673,1294.5054945054944,,1,3,1768793780.4414673
1768793780449.2798,1294.5054945054944,,1,3,1768793780.4492798
1768793780457.0923,1296.7032967032967,,1,3,1768793780.4570923
1768793780464.9048,1297.4358974358977,,1,3,1768793780.4649048
1768793780472.7173,1294.5054945054944,,1,3,1768793780.4727173
1768793780480.5298,1290.8424908424909,,1,3,1768793780.4805298
1768793780488.3423,1290.10989010989,,1,3,1768793780.4883423
1768793780496.1548,1293.040293040293,,1,3,1768793780.4961548
1768793780503.9673,1295.970695970696,,1,3,1768793780.5039673
1768793780511.7798,1302.5641025641023,,1,3,1768793780.5117798
1768793780519.5923,1310.6227106227104,,1,3,1768793780.5195923
1768793780527.4048,1318.6813186813183,,1,3,1768793780.5274048
1768793780535.2173,1325.2747252747251,,1,3,1768793780.5352173
1768793780543.0298,1331.135531135531,,1,3,1768793780.5430298
1768793780550.8423,1341.3919413919414,,1,3,1768793780.5508423
1768793780558.6548,1353.8461538461538,,1,3,1768793780.5586548
1768793780566.4673,1369.230769230769,,1,3,1768793780.5664673
1768793780574.2798,1386.8131868131868,,1,3,1768793780.5742798
1768793780582.0923,1405.8608058608058,,1,3,1768793780.5820923
1768793780589.9048,1428.5714285714284,,1,3,1768793780.5899048
1768793780597.7173,1449.084249084249,,1,3,1768793780.5977173
1768793780605.5298,1467.3992673992673,,1,3,1768793780.6055298
1768793780613.3423,1479.8534798534797,,1,3,1768793780.6133423
1768793780621.1548,1488.6446886446886,,1,3,1768793780.6211548
1768793780628.9673,1494.5054945054944,,1,3,1768793780.6289673
1768793780636.7798,1495.970695970696,,1,3,1768793780.6367798
1768793780644.5923,1493.040293040293,,1,3,1768793780.6445923
1768793780652.4048,1486.4468864468863,,1,3,1768793780.6524048
1768793780660.2173,1482.7838827838827,,1,3,1768793780.6602173
1768793780668.0298,1484.9816849816848,,1,3,1768793780.6680298
1768793780675.8423,1485.7142857142856,,1,3,1768793780.6758423
1768793780683.6548,1482.7838827838827,,1,3,1768793780.6836548
