Shimmer_6815_Timestamp_Unix_CAL,Shimmer_6815_PPG_A13_CAL,Unnamed: 2,inhale,inhale_id,epoch_sec
1768787205225.5554,44.688644688644686,,0,-1,1768787205.2255554
1768787205233.368,143.5897435897436,,0,-1,1768787205.233368
1768787205241.1804,262.27106227106225,,0,-1,1768787205.2411804
1768787205248.993,387.5457875457875,,0,-1,1768787205.248993
1768787205256.8054,511.3553113553113,,0,-1,1768787205.2568054
1768787205264.618,626.3736263736263,,0,-1,1768787205.264618
1768787205272.4304,731.1355311355311,,0,-1,1768787205.2724304
1768787205280.243,827.8388278388278,,0,-1,1768787205.280243
1768787205288.0554,915.018315018315,,0,-1,1768787205.2880554
1768787205295.868,992.6739926739926,,0,-1,1768787205.295868
1768787205303.6804,1055.6776556776556,,0,-1,1768787205.3036804
1768787205311.493,1103.2967032967033,,0,-1,1768787205.311493
1768787205319.3054,1140.6593406593406,,0,-1,1768787205.3193054
1768787205327.118,1172.161172161172,,0,-1,1768787205.327118
1768787205334.9304,1195.6043956043954,,0,-1,1768787205.3349304
1768787205342.743,1217.5824175824175,,0,-1,1768787205.342743
1768787205350.5554,1229.3040293040292,,0,-1,1768787205.3505554
1768787205358.368,1235.8974358974358,,0,-1,1768787205.358368
1768787205366.1804,1243.956043956044,,0,-1,1768787205.3661804
1768787205373.993,1244.688644688645,,0,-1,1768787205.373993
1768787205381.8054,1245.4212454212454,,0,-1,1768787205.3818054
1768787205389.618,1246.153846153846,,0,-1,1768787205.389618
1768787205397.4304,1245.4212454212454,,0,-1,1768787205.3974304
1768787205405.243,1241.7582417582416,,0,-1,1768787205.405243
1768787205413.0554,1236.6300366300366,,0,-1,1768787205.4130554
1768787205420.868,1235.164835164835,,0,-1,1768787205.420868
1768787205428.6804,1241.7582417582416,,0,-1,1768787205.4286804
1768787205436.493,1251.2820512820513,,0,-1,1768787205.436493
1768787205444.3054,1260.07326007326,,0,-1,1768787205.4443054
1768787205452.118,1267.3992673992673,,0,-1,1768787205.452118
1768787205459.9304,1271.7948717948716,,0,-1,1768787205.4599304
1768787205467.743,1273.992673992674,,0,-1,1768787205.467743
1768787205475.5554,1271.062271062271,,0,-1,1768787205.4755554
1768787205483.368,1267.3992673992673,,0,-1,1768787205.483368
1768787205491.1804,1263.7362637362637,,0,-1,1768787205.4911804
1768787205498.993,1259.3406593406592,,0,-1,1768787205.498993
1768787205506.8054,1252.7472527472526,,0,-1,1768787205.5068054
1768787205514.618,1244.688644688645,,0,-1,1768787205.514618
1768787205522.4304,1239.5604395604396,,0,-1,1768787205.5224304
1768787205530.243,1236.6300366300366,,0,-1,1768787205.530243
1768787205538.0554,1240.29304029304,,0,-1,1768787205.5380554
1768787205545.868,1246.8864468864467,,0,-1,1768787205.545868
1768787205553.6804,1251.2820512820513,,0,-1,1768787205.5536804
1768787205561.493,1254.212454212454,,0,-1,1768787205.561493
1768787205569.3054,1254.212454212454,,0,-1,1768787205.5693054
1768787205577.118,1252.7472527472526,,0,-1,1768787205.577118
1768787205584.9304,1251.2820512820513,,0,-1,1768787205.5849304
1768787205592.743,1248.3516483516482,,0,-1,1768787205.592743
1768787205600.5554,1250.5494505494505,,0,-1,1768787205.6005554
1768787205608.368,1254.212454212454,,0,-1,1768787205.608368
1768787205616.1804,1256.4102564102564,,0,-1,1768787205.6161804
1768787205623.993,1252.014652014652,,0,-1,1768787205.623993
1768787205631.8054,1246.8864468864467,,0,-1,1768787205.6318054
1768787205639.618,1241.0256410256409,,0,-1,1768787205.639618
1768787205647.4304,1233.6996336996335,,0,-1,1768787205.6474304
1768787205655.243,1227.106227106227,,0,-1,1768787205.655243
1768787205663.0554,1221.245421245421,,0,-1,1768787205.6630554
1768787205670.868,1218.3150183150185,,0,-1,1768787205.670868
1768787205678.6804,1221.245421245421,,0,-1,1768787205.6786804
1768787205686.493,1226.3736263736264,,0,-1,1768787205.686493
1768787205694.3054,1230.03663003663,,0,-1,1768787205.6943054
1768787205702.118,1234.4322344322345,,0,-1,1768787205.702118
1768787205709.9304,1239.5604395604396,,0,-1,1768787205.7099304
1768787205717.743,1246.153846153846,,0,-1,1768787205.717743
1768787205725.5554,1251.2820512820513,,0,-1,1768787205.7255554
1768787205733.368,1255.6776556776556,,0,-1,1768787205.733368
1768787205741.1804,1259.3406593406592,,0,-1,1768787205.7411804
1768787205748.993,1259.3406593406592,,0,-1,1768787205.748993
1768787205756.8054,1256.4102564102564,,0,-1,1768787205.7568054
1768787205764.618,1252.7472527472526,,0,-1,1768787205.764618
1768787205772.4304,1249.8168498168498,,0,-1,1768787205.7724304
1768787205780.243,1250.5494505494505,,0,-1,1768787205.780243
1768787205788.0554,1250.5494505494505,,0,-1,1768787205.7880554
1768787205795.868,1252.014652014652,,0,-1,1768787205.795868
1768787205803.6804,1252.7472527472526,,0,-1,1768787205.8036804
1768787205811.493,1256.4102564102564,,0,-1,1768787205.811493
1768787205819.3054,1264.4688644688645,,0,-1,1768787205.8193054
1768787205827.118,1278.3882783882782,,0,-1,1768787205.827118
1768787205834.9304,1301.098901098901,,0,-1,1768787205.8349304
1768787205842.743,1327.4725274725274,,0,-1,1768787205.842743
1768787205850.5554,1354.5787545787546,,0,-1,1768787205.8505554
1768787205858.368,1378.7545787545787,,0,-1,1768787205.858368
1768787205866.1804,1400.0,,0,-1,1768787205.8661804
1768787205873.993,1416.8498168498168,,0,-1,1768787205.873993
1768787205881.8054,1423.4432234432234,,0,-1,1768787205.8818054
1768787205889.618,1424.175824175824,,0,-1,1768787205.889618
1768787205897.4304,1421.9780219780218,,0,-1,1768787205.8974304
1768787205905.243,1414.6520146520145,,0,-1,1768787205.905243
1768787205913.0554,1408.058608058608,,0,-1,1768787205.9130554
1768787205920.868,1401.4652014652013,,0,-1,1768787205.920868
1768787205928.6804,1395.6043956043954,,0,-1,1768787205.9286804
1768787205936.493,1393.4065934065934,,0,-1,1768787205.936493
1768787205944.3054,1389.0109890109889,,0,-1,1768787205.9443054
1768787205952.118,1383.150183150183,,0,-1,1768787205.952118
1768787205959.9304,1383.150183150183,,0,-1,1768787205.9599304
1768787205967.743,1391.941391941392,,0,-1,1768787205.967743
1768787205975.5554,1402.9304029304028,,0,-1,1768787205.9755554
1768787205983.368,1414.6520146520145,,0,-1,1768787205.983368
1768787205991.1804,1431.5018315018317,,0,-1,1768787205.9911804
1768787205998.993,1448.3516483516482,,0,-1,1768787205.998993
1768787206006.8054,1463.003663003663,,0,-1,1768787206.0068054
1768787206014.618,1473.260073260073,,0,-1,1768787206.014618
1768787206022.4304,1482.051282051282,,0,-1,1768787206.0224304
1768787206030.243,1488.6446886446886,,0,-1,1768787206.030243
1768787206038.0554,1492.3076923076922,,0,-1,1768787206.0380554
1768787206045.868,1493.040293040293,,0,-1,1768787206.045868
1768787206053.6804,1500.3663003663005,,0,-1,1768787206.0536804
1768787206061.493,1504.0293040293038,,0,-1,1768787206.061493
1768787206069.3054,1517.216117216117,,0,-1,1768787206.0693054
1768787206077.118,1533.3333333333333,,0,-1,1768787206.077118
1768787206084.9304,1553.113553113553,,0,-1,1768787206.0849304
1768787206092.743,1567.7655677655678,,0,-1,1768787206.092743
1768787206100.5554,1583.150183150183,,0,-1,1768787206.1005554
1768787206108.368,1594.8717948717947,,0,-1,1768787206.108368
1768787206116.1804,1608.058608058608,,0,-1,1768787206.1161804
1768787206123.993,1625.6410256410256,,0,-1,1768787206.123993
1768787206131.8054,1646.153846153846,,0,-1,1768787206.1318054
1768787206139.618,1663.003663003663,,0,-1,1768787206.139618
1768787206147.4304,1682.051282051282,,0,-1,1768787206.1474304
1768787206155.243,1698.168498168498,,0,-1,1768787206.155243
1768787206163.0554,1704.7619047619046,,0,-1,1768787206.1630554
1768787206170.868,1709.8901098901097,,0,-1,1768787206.170868
1768787206178.6804,1712.087912087912,,0,-1,1768787206.1786804
1768787206186.493,1706.9597069597069,,0,-1,1768787206.186493
1768787206194.3054,1706.9597069597069,,0,-1,1768787206.1943054
1768787206202.118,1701.8315018315018,,0,-1,1768787206.202118
1768787206209.9304,1699.6336996336995,,1,1,1768787206.2099304
1768787206217.743,1698.9010989010987,,1,1,1768787206.217743
1768787206225.5554,1694.5054945054944,,1,1,1768787206.2255554
1768787206233.368,1694.5054945054944,,1,1,1768787206.233368
1768787206241.1804,1688.6446886446886,,1,1,1768787206.2411804
1768787206248.993,1681.3186813186812,,1,1,1768787206.248993
1768787206256.8054,1673.260073260073,,1,1,1768787206.2568054
1768787206264.618,1660.805860805861,,1,1,1768787206.264618
1768787206272.4304,1648.3516483516482,,1,1,1768787206.2724304
1768787206280.243,1635.164835164835,,1,1,1768787206.280243
1768787206288.0554,1613.186813186813,,1,1,1768787206.2880554
1768787206295.868,1595.6043956043954,,1,1,1768787206.295868
1768787206303.6804,1575.091575091575,,1,1,1768787206.3036804
1768787206311.493,1558.974358974359,,1,1,1768787206.311493
1768787206319.3054,1545.7875457875457,,1,1,1768787206.3193054
1768787206327.118,1530.4029304029302,,1,1,1768787206.327118
1768787206334.9304,1519.4139194139193,,1,1,1768787206.3349304
1768787206342.743,1503.2967032967033,,1,1,1768787206.342743
1768787206350.5554,1487.9120879120878,,1,1,1768787206.3505554
1768787206358.368,1473.992673992674,,1,1,1768787206.358368
1768787206366.1804,1465.9340659340658,,1,1,1768787206.3661804
1768787206373.993,1457.875457875458,,1,1,1768787206.373993
1768787206381.8054,1456.4102564102564,,1,1,1768787206.3818054
1768787206389.618,1454.9450549450548,,1,1,1768787206.389618
1768787206397.4304,1454.9450549450548,,1,1,1768787206.3974304
1768787206405.243,1456.4102564102564,,1,1,1768787206.405243
1768787206413.0554,1460.07326007326,,1,1,1768787206.4130554
1768787206420.868,1457.142857142857,,1,1,1768787206.420868
1768787206428.6804,1460.805860805861,,1,1,1768787206.4286804
1768787206436.493,1460.805860805861,,1,1,1768787206.436493
1768787206444.3054,1464.4688644688645,,1,1,1768787206.4443054
1768787206452.118,1465.9340659340658,,1,1,1768787206.452118
1768787206459.9304,1467.3992673992673,,1,1,1768787206.4599304
1768787206467.743,1465.9340659340658,,1,1,1768787206.467743
1768787206475.5554,1464.4688644688645,,1,1,1768787206.4755554
1768787206483.368,1460.805860805861,,1,1,1768787206.483368
1768787206491.1804,1455.6776556776556,,1,1,1768787206.4911804
1768787206498.993,1446.8864468864467,,1,1,1768787206.498993
1768787206506.8054,1441.0256410256409,,1,1,1768787206.5068054
1768787206514.618,1431.5018315018317,,1,1,1768787206.514618
1768787206522.4304,1421.9780219780218,,1,1,1768787206.5224304
1768787206530.243,1406.5934065934066,,1,1,1768787206.530243
1768787206538.0554,1391.941391941392,,1,1,1768787206.5380554
1768787206545.868,1368.4981684981683,,1,1,1768787206.545868
1768787206553.6804,1347.985347985348,,1,1,1768787206.5536804
1768787206561.493,1326.739926739927,,1,1,1768787206.561493
1768787206569.3054,1312.8205128205127,,1,1,1768787206.5693054
1768787206577.118,1300.3663003663005,,1,1,1768787206.577118
1768787206584.9304,1290.10989010989,,1,1,1768787206.5849304
1768787206592.743,1285.7142857142856,,1,1,1768787206.592743
1768787206600.5554,1278.3882783882782,,1,1,1768787206.6005554
1768787206608.368,1276.923076923077,,1,1,1768787206.608368
1768787206616.1804,1277.6556776556777,,1,1,1768787206.6161804
1768787206623.993,1273.260073260073,,1,1,1768787206.623993
1768787206631.8054,1274.7252747252746,,1,1,1768787206.6318054
1768787206639.618,1269.5970695970695,,1,1,1768787206.639618
1768787206647.4304,1260.805860805861,,1,1,1768787206.6474304
1768787206655.243,1243.956043956044,,1,1,1768787206.655243
1768787206663.0554,1230.03663003663,,1,1,1768787206.6630554
1768787206670.868,1216.8498168498168,,1,1,1768787206.670868
1768787206678.6804,1210.2564102564102,,1,1,1768787206.6786804
1768787206686.493,1206.5934065934066,,1,1,1768787206.686493
1768787206694.3054,1203.6630036630036,,1,1,1768787206.6943054
1768787206702.118,1206.5934065934066,,1,1,1768787206.702118
1768787206709.9304,1210.989010989011,,1,1,1768787206.7099304
1768787206717.743,1219.047619047619,,1,1,1768787206.717743
1768787206725.5554,1220.5128205128203,,1,1,1768787206.7255554
1768787206733.368,1222.7106227106226,,1,1,1768787206.733368
1768787206741.1804,1216.8498168498168,,1,1,1768787206.7411804
1768787206748.993,1216.117216117216,,1,1,1768787206.748993
1768787206756.8054,1208.7912087912086,,1,1,1768787206.7568054
1768787206764.618,1210.2564102564102,,1,1,1768787206.764618
1768787206772.4304,1208.7912087912086,,1,1,1768787206.7724304
1768787206780.243,1212.4542124542124,,1,1,1768787206.780243
1768787206788.0554,1210.989010989011,,1,1,1768787206.7880554
1768787206795.868,1207.3260073260074,,1,1,1768787206.795868
1768787206803.6804,1199.2673992673992,,1,1,1768787206.8036804
1768787206811.493,1197.069597069597,,1,1,1768787206.811493
1768787206819.3054,1188.278388278388,,1,1,1768787206.8193054
1768787206827.118,1180.952380952381,,1,1,1768787206.827118
1768787206834.9304,1169.9633699633698,,1,1,1768787206.8349304
1768787206842.743,1164.8351648351647,,1,1,1768787206.842743
1768787206850.5554,1157.5091575091574,,1,1,1768787206.8505554
1768787206858.368,1159.7069597069597,,1,1,1768787206.858368
1768787206866.1804,1161.1721611721612,,1,1,1768787206.8661804
1768787206873.993,1167.032967032967,,1,1,1768787206.873993
1768787206881.8054,1176.5567765567764,,1,1,1768787206.8818054
1768787206889.618,1188.278388278388,,1,1,1768787206.889618
1768787206897.4304,1193.4065934065934,,1,1,1768787206.8974304
1768787206905.243,1198.5347985347985,,1,1,1768787206.905243
1768787206913.0554,1202.9304029304028,,1,1,1768787206.9130554
1768787206920.868,1206.5934065934066,,1,1,1768787206.920868
1768787206928.6804,1215.3846153846152,,1,1,1768787206.9286804
1768787206936.493,1222.7106227106226,,1,1,1768787206.936493
1768787206944.3054,1237.362637362637,,1,1,1768787206.9443054
1768787206952.118,1251.2820512820513,,1,1,1768787206.952118
1768787206959.9304,1273.992673992674,,1,1,1768787206.9599304
1768787206967.743,1291.5750915750914,,1,1,1768787206.967743
1768787206975.5554,1314.2857142857142,,1,1,1768787206.9755554
1768787206983.368,1325.2747252747251,,1,1,1768787206.983368
1768787206991.1804,1339.92673992674,,1,1,1768787206.9911804
1768787206998.993,1351.6483516483515,,1,1,1768787206.998993
1768787207006.8054,1364.8351648351647,,1,1,1768787207.0068054
1768787207014.618,1371.428571428571,,1,1,1768787207.014618
1768787207022.4304,1380.2197802197802,,1,1,1768787207.0224304
1768787207030.243,1384.6153846153843,,1,1,1768787207.030243
1768787207038.0554,1389.7435897435896,,1,1,1768787207.0380554
1768787207045.868,1386.8131868131868,,1,1,1768787207.045868
1768787207053.6804,1388.278388278388,,1,1,1768787207.0536804
1768787207061.493,1386.8131868131868,,1,1,1768787207.061493
1768787207069.3054,1394.139194139194,,1,1,1768787207.0693054
1768787207077.118,1396.3369963369962,,1,1,1768787207.077118
1768787207084.9304,1405.128205128205,,1,1,1768787207.0849304
1768787207092.743,1409.5238095238094,,1,1,1768787207.092743
1768787207100.5554,1420.5128205128203,,1,1,1768787207.1005554
1768787207108.368,1428.5714285714284,,1,1,1768787207.108368
1768787207116.1804,1439.5604395604394,,1,1,1768787207.1161804
1768787207123.993,1446.8864468864467,,1,1,1768787207.123993
1768787207131.8054,1457.875457875458,,1,1,1768787207.1318054
1768787207139.618,1462.2710622710622,,1,1,1768787207.139618
1768787207147.4304,1468.131868131868,,1,1,1768787207.1474304
1768787207155.243,1465.201465201465,,1,1,1768787207.155243
1768787207163.0554,1465.201465201465,,1,1,1768787207.1630554
1768787207170.868,1464.4688644688645,,1,1,1768787207.170868
1768787207178.6804,1461.5384615384614,,1,1,1768787207.1786804
1768787207186.493,1460.805860805861,,1,1,1768787207.186493
1768787207194.3054,1455.6776556776556,,1,1,1768787207.1943054
1768787207202.118,1452.7472527472526,,1,1,1768787207.202118
1768787207209.9304,1451.2820512820513,,1,1,1768787207.2099304
1768787207217.743,1445.4212454212454,,1,1,1768787207.217743
1768787207225.5554,1442.4908424908424,,1,1,1768787207.2255554
1768787207233.368,1436.6300366300366,,1,1,1768787207.233368
1768787207241.1804,1435.8974358974358,,1,1,1768787207.2411804
1768787207248.993,1433.6996336996335,,1,1,1768787207.248993
1768787207256.8054,1432.9670329670328,,1,1,1768787207.2568054
1768787207264.618,1433.6996336996335,,1,1,1768787207.264618
1768787207272.4304,1429.3040293040292,,1,1,1768787207.2724304
1768787207280.243,1429.3040293040292,,1,1,1768787207.280243
1768787207288.0554,1427.106227106227,,1,1,1768787207.2880554
1768787207295.868,1420.5128205128203,,1,1,1768787207.295868
1768787207303.6804,1417.5824175824175,,1,1,1768787207.3036804
1768787207311.493,1418.3150183150185,,1,1,1768787207.311493
1768787207319.3054,1416.117216117216,,1,1,1768787207.3193054
1768787207327.118,1412.4542124542124,,1,1,1768787207.327118
1768787207334.9304,1406.5934065934066,,1,1,1768787207.3349304
1768787207342.743,1400.7326007326003,,1,1,1768787207.342743
1768787207350.5554,1394.8717948717947,,1,1,1768787207.3505554
1768787207358.368,1399.2673992673992,,1,1,1768787207.358368
1768787207366.1804,1405.128205128205,,1,1,1768787207.3661804
1768787207373.993,1411.7216117216117,,1,1,1768787207.373993
1768787207381.8054,1414.6520146520145,,1,1,1768787207.3818054
1768787207389.618,1416.8498168498168,,1,1,1768787207.389618
1768787207397.4304,1414.6520146520145,,1,1,1768787207.3974304
1768787207405.243,1415.3846153846152,,1,1,1768787207.405243
1768787207413.0554,1412.4542124542124,,1,1,1768787207.4130554
1768787207420.868,1403.6630036630036,,1,1,1768787207.420868
1768787207428.6804,1393.4065934065934,,1,1,1768787207.4286804
1768787207436.493,1378.7545787545787,,1,1,1768787207.436493
1768787207444.3054,1369.9633699633698,,1,1,1768787207.4443054
1768787207452.118,1364.102564102564,,1,1,1768787207.452118
1768787207459.9304,1356.043956043956,,1,1,1768787207.4599304
1768787207467.743,1347.2527472527472,,1,1,1768787207.467743
1768787207475.5554,1342.124542124542,,1,1,1768787207.4755554
1768787207483.368,1338.4615384615383,,1,1,1768787207.483368
1768787207491.1804,1333.3333333333333,,1,1,1768787207.4911804
1768787207498.993,1333.3333333333333,,1,1,1768787207.498993
1768787207506.8054,1335.5311355311355,,1,1,1768787207.5068054
1768787207514.618,1336.9963369963368,,1,1,1768787207.514618
1768787207522.4304,1336.9963369963368,,1,1,1768787207.5224304
1768787207530.243,1336.9963369963368,,1,1,1768787207.530243
1768787207538.0554,1338.4615384615383,,1,1,1768787207.5380554
1768787207545.868,1342.124542124542,,1,1,1768787207.545868
1768787207553.6804,1345.054945054945,,1,1,1768787207.5536804
1768787207561.493,1350.9157509157508,,1,1,1768787207.561493
1768787207569.3054,1359.7069597069597,,1,1,1768787207.5693054
1768787207577.118,1367.7655677655678,,1,1,1768787207.577118
1768787207584.9304,1370.6959706959706,,1,1,1768787207.5849304
1768787207592.743,1373.6263736263736,,1,1,1768787207.592743
1768787207600.5554,1376.5567765567764,,1,1,1768787207.6005554
1768787207608.368,1372.8937728937728,,1,1,1768787207.608368
1768787207616.1804,1361.904761904762,,1,1,1768787207.6161804
1768787207623.993,1352.3809523809523,,1,1,1768787207.623993
1768787207631.8054,1348.7179487179487,,1,1,1768787207.6318054
1768787207639.618,1347.2527472527472,,1,1,1768787207.639618
1768787207647.4304,1347.2527472527472,,1,1,1768787207.6474304
1768787207655.243,1346.5201465201465,,1,1,1768787207.655243
1768787207663.0554,1344.3223443223442,,1,1,1768787207.6630554
1768787207670.868,1343.5897435897434,,1,1,1768787207.670868
1768787207678.6804,1338.4615384615383,,1,1,1768787207.6786804
1768787207686.493,1333.3333333333333,,1,1,1768787207.686493
1768787207694.3054,1328.937728937729,,1,1,1768787207.6943054
1768787207702.118,1324.5421245421244,,1,1,1768787207.702118
1768787207709.9304,1321.6117216117216,,1,1,1768787207.7099304
1768787207717.743,1318.6813186813183,,1,1,1768787207.717743
1768787207725.5554,1318.6813186813183,,1,1,1768787207.7255554
1768787207733.368,1318.6813186813183,,1,1,1768787207.733368
1768787207741.1804,1317.9487179487178,,1,1,1768787207.7411804
1768787207748.993,1320.8791208791208,,1,1,1768787207.748993
1768787207756.8054,1326.739926739927,,1,1,1768787207.7568054
1768787207764.618,1331.135531135531,,1,1,1768787207.764618
1768787207772.4304,1328.2051282051282,,1,1,1768787207.7724304
1768787207780.243,1326.007326007326,,1,1,1768787207.780243
1768787207788.0554,1320.8791208791208,,1,1,1768787207.7880554
1768787207795.868,1319.4139194139193,,1,1,1768787207.795868
1768787207803.6804,1320.14652014652,,1,1,1768787207.8036804
1768787207811.493,1320.8791208791208,,1,1,1768787207.811493
1768787207819.3054,1323.8095238095236,,1,1,1768787207.8193054
1768787207827.118,1329.6703296703297,,1,1,1768787207.827118
1768787207834.9304,1338.4615384615383,,1,1,1768787207.8349304
1768787207842.743,1347.985347985348,,1,1,1768787207.842743
1768787207850.5554,1353.113553113553,,1,1,1768787207.8505554
1768787207858.368,1355.311355311355,,1,1,1768787207.858368
1768787207866.1804,1356.7765567765566,,1,1,1768787207.8661804
1768787207873.993,1358.974358974359,,1,1,1768787207.873993
1768787207881.8054,1357.5091575091574,,1,1,1768787207.8818054
1768787207889.618,1356.043956043956,,1,1,1768787207.889618
1768787207897.4304,1356.043956043956,,1,1,1768787207.8974304
1768787207905.243,1358.241758241758,,1,1,1768787207.905243
1768787207913.0554,1364.8351648351647,,1,1,1768787207.9130554
1768787207920.868,1373.6263736263736,,1,1,1768787207.920868
1768787207928.6804,1384.6153846153843,,1,1,1768787207.9286804
1768787207936.493,1396.3369963369962,,1,1,1768787207.936493
1768787207944.3054,1409.5238095238094,,1,1,1768787207.9443054
1768787207952.118,1423.4432234432234,,0,-1,1768787207.952118
1768787207959.9304,1432.2344322344322,,0,-1,1768787207.9599304
1768787207967.743,1438.095238095238,,0,-1,1768787207.967743
1768787207975.5554,1442.4908424908424,,0,-1,1768787207.9755554
1768787207983.368,1445.4212454212454,,0,-1,1768787207.983368
1768787207991.1804,1446.8864468864467,,0,-1,1768787207.9911804
1768787207998.993,1448.3516483516482,,0,-1,1768787207.998993
1768787208006.8054,1452.7472527472526,,0,-1,1768787208.0068054
1768787208014.618,1455.6776556776556,,0,-1,1768787208.014618
1768787208022.4304,1457.875457875458,,0,-1,1768787208.0224304
1768787208030.243,1455.6776556776556,,0,-1,1768787208.030243
1768787208038.0554,1449.8168498168498,,0,-1,1768787208.0380554
1768787208045.868,1443.956043956044,,0,-1,1768787208.045868
1768787208053.6804,1441.7582417582416,,0,-1,1768787208.0536804
1768787208061.493,1439.5604395604394,,0,-1,1768787208.061493
1768787208069.3054,1435.8974358974358,,0,-1,1768787208.0693054
1768787208077.118,1435.164835164835,,0,-1,1768787208.077118
1768787208084.9304,1428.5714285714284,,0,-1,1768787208.0849304
1768787208092.743,1417.5824175824175,,0,-1,1768787208.092743
1768787208100.5554,1411.7216117216117,,0,-1,1768787208.1005554
1768787208108.368,1408.7912087912086,,0,-1,1768787208.108368
1768787208116.1804,1409.5238095238094,,0,-1,1768787208.1161804
1768787208123.993,1411.7216117216117,,0,-1,1768787208.123993
1768787208131.8054,1410.989010989011,,0,-1,1768787208.1318054
1768787208139.618,1409.5238095238094,,0,-1,1768787208.139618
1768787208147.4304,1407.3260073260071,,0,-1,1768787208.1474304
1768787208155.243,1404.3956043956043,,0,-1,1768787208.155243
1768787208163.0554,1400.7326007326003,,0,-1,1768787208.1630554
1768787208170.868,1399.2673992673992,,0,-1,1768787208.170868
1768787208178.6804,1398.5347985347985,,0,-1,1768787208.1786804
1768787208186.493,1398.5347985347985,,0,-1,1768787208.186493
1768787208194.3054,1400.0,,0,-1,1768787208.1943054
1768787208202.118,1400.0,,0,-1,1768787208.202118
1768787208209.9304,1399.2673992673992,,0,-1,1768787208.2099304
1768787208217.743,1395.6043956043954,,0,-1,1768787208.217743
1768787208225.5554,1388.278388278388,,0,-1,1768787208.2255554
1768787208233.368,1378.7545787545787,,0,-1,1768787208.233368
1768787208241.1804,1370.6959706959706,,0,-1,1768787208.2411804
1768787208248.993,1363.3699633699632,,0,-1,1768787208.248993
1768787208256.8054,1357.5091575091574,,0,-1,1768787208.2568054
1768787208264.618,1353.8461538461538,,0,-1,1768787208.264618
1768787208272.4304,1353.113553113553,,0,-1,1768787208.2724304
1768787208280.243,1353.8461538461538,,0,-1,1768787208.280243
1768787208288.0554,1352.3809523809523,,0,-1,1768787208.2880554
1768787208295.868,1350.18315018315,,0,-1,1768787208.295868
1768787208303.6804,1345.7875457875457,,0,-1,1768787208.3036804
1768787208311.493,1342.124542124542,,0,-1,1768787208.311493
1768787208319.3054,1339.92673992674,,0,-1,1768787208.3193054
1768787208327.118,1345.7875457875457,,0,-1,1768787208.327118
1768787208334.9304,1356.7765567765566,,0,-1,1768787208.3349304
1768787208342.743,1364.8351648351647,,0,-1,1768787208.342743
1768787208350.5554,1374.3589743589744,,0,-1,1768787208.3505554
1768787208358.368,1383.8827838827838,,0,-1,1768787208.358368
1768787208366.1804,1391.2087912087911,,0,-1,1768787208.3661804
1768787208373.993,1398.5347985347985,,0,-1,1768787208.373993
1768787208381.8054,1402.9304029304028,,0,-1,1768787208.3818054
1768787208389.618,1402.197802197802,,0,-1,1768787208.389618
1768787208397.4304,1401.4652014652013,,0,-1,1768787208.3974304
1768787208405.243,1399.2673992673992,,0,-1,1768787208.405243
1768787208413.0554,1394.8717948717947,,0,-1,1768787208.4130554
1768787208420.868,1389.7435897435896,,0,-1,1768787208.420868
1768787208428.6804,1386.8131868131868,,0,-1,1768787208.4286804
1768787208436.493,1382.4175824175825,,0,-1,1768787208.436493
1768787208444.3054,1378.7545787545787,,0,-1,1768787208.4443054
1768787208452.118,1374.3589743589744,,0,-1,1768787208.452118
1768787208459.9304,1372.161172161172,,0,-1,1768787208.4599304
1768787208467.743,1372.8937728937728,,0,-1,1768787208.467743
1768787208475.5554,1372.161172161172,,0,-1,1768787208.4755554
1768787208483.368,1375.091575091575,,0,-1,1768787208.483368
1768787208491.1804,1377.2893772893772,,0,-1,1768787208.4911804
1768787208498.993,1378.021978021978,,0,-1,1768787208.498993
1768787208506.8054,1375.8241758241757,,0,-1,1768787208.5068054
1768787208514.618,1377.2893772893772,,0,-1,1768787208.514618
1768787208522.4304,1378.021978021978,,0,-1,1768787208.5224304
1768787208530.243,1374.3589743589744,,0,-1,1768787208.530243
1768787208538.0554,1374.3589743589744,,0,-1,1768787208.5380554
1768787208545.868,1369.9633699633698,,0,-1,1768787208.545868
1768787208553.6804,1366.3003663003662,,0,-1,1768787208.5536804
1768787208561.493,1364.8351648351647,,0,-1,1768787208.561493
1768787208569.3054,1357.5091575091574,,0,-1,1768787208.5693054
1768787208577.118,1349.4505494505493,,0,-1,1768787208.577118
1768787208584.9304,1347.985347985348,,0,-1,1768787208.5849304
1768787208592.743,1345.7875457875457,,0,-1,1768787208.592743
1768787208600.5554,1341.3919413919414,,0,-1,1768787208.6005554
1768787208608.368,1343.5897435897434,,0,-1,1768787208.608368
1768787208616.1804,1342.857142857143,,0,-1,1768787208.6161804
1768787208623.993,1339.92673992674,,0,-1,1768787208.623993
1768787208631.8054,1339.194139194139,,0,-1,1768787208.6318054
1768787208639.618,1336.263736263736,,0,-1,1768787208.639618
1768787208647.4304,1333.3333333333333,,0,-1,1768787208.6474304
1768787208655.243,1332.6007326007325,,0,-1,1768787208.655243
1768787208663.0554,1328.937728937729,,0,-1,1768787208.6630554
1768787208670.868,1324.5421245421244,,0,-1,1768787208.670868
1768787208678.6804,1324.5421245421244,,0,-1,1768787208.6786804
1768787208686.493,1319.4139194139193,,0,-1,1768787208.686493
1768787208694.3054,1313.5531135531137,,0,-1,1768787208.6943054
1768787208702.118,1306.9597069597069,,0,-1,1768787208.702118
1768787208709.9304,1300.3663003663005,,0,-1,1768787208.7099304
1768787208717.743,1289.3772893772891,,0,-1,1768787208.717743
1768787208725.5554,1286.4468864468863,,0,-1,1768787208.7255554
1768787208733.368,1282.051282051282,,0,-1,1768787208.733368
1768787208741.1804,1279.8534798534797,,0,-1,1768787208.7411804
1768787208748.993,1283.5164835164835,,0,-1,1768787208.748993
1768787208756.8054,1282.7838827838827,,0,-1,1768787208.7568054
1768787208764.618,1283.5164835164835,,0,-1,1768787208.764618
1768787208772.4304,1288.6446886446886,,0,-1,1768787208.7724304
1768787208780.243,1294.5054945054944,,0,-1,1768787208.780243
1768787208788.0554,1299.6336996336995,,0,-1,1768787208.7880554
1768787208795.868,1310.6227106227104,,0,-1,1768787208.795868
1768787208803.6804,1317.9487179487178,,0,-1,1768787208.8036804
1768787208811.493,1330.4029304029302,,0,-1,1768787208.811493
1768787208819.3054,1337.7289377289376,,0,-1,1768787208.8193054
1768787208827.118,1347.985347985348,,0,-1,1768787208.827118
1768787208834.9304,1358.241758241758,,0,-1,1768787208.8349304
1768787208842.743,1367.7655677655678,,0,-1,1768787208.842743
1768787208850.5554,1376.5567765567764,,0,-1,1768787208.8505554
1768787208858.368,1389.7435897435896,,0,-1,1768787208.858368
1768787208866.1804,1397.069597069597,,0,-1,1768787208.8661804
1768787208873.993,1399.2673992673992,,0,-1,1768787208.873993
1768787208881.8054,1404.3956043956043,,0,-1,1768787208.8818054
1768787208889.618,1405.8608058608058,,0,-1,1768787208.889618
1768787208897.4304,1409.5238095238094,,0,-1,1768787208.8974304
1768787208905.243,1413.9194139194135,,0,-1,1768787208.905243
1768787208913.0554,1413.9194139194135,,0,-1,1768787208.9130554
1768787208920.868,1413.9194139194135,,0,-1,1768787208.920868
1768787208928.6804,1421.245421245421,,0,-1,1768787208.9286804
1768787208936.493,1427.8388278388277,,0,-1,1768787208.936493
1768787208944.3054,1438.8278388278388,,0,-1,1768787208.9443054
1768787208952.118,1447.6190476190477,,0,-1,1768787208.952118
1768787208959.9304,1454.212454212454,,0,-1,1768787208.9599304
1768787208967.743,1460.07326007326,,0,-1,1768787208.967743
1768787208975.5554,1456.4102564102564,,0,-1,1768787208.9755554
1768787208983.368,1452.014652014652,,0,-1,1768787208.983368
1768787208991.1804,1449.8168498168498,,0,-1,1768787208.9911804
1768787208998.993,1449.084249084249,,0,-1,1768787208.998993
1768787209006.8054,1446.153846153846,,0,-1,1768787209.0068054
1768787209014.618,1452.014652014652,,0,-1,1768787209.014618
1768787209022.4304,1454.212454212454,,0,-1,1768787209.0224304
1768787209030.243,1457.142857142857,,0,-1,1768787209.030243
1768787209038.0554,1460.805860805861,,0,-1,1768787209.0380554
1768787209045.868,1453.479853479853,,0,-1,1768787209.045868
1768787209053.6804,1449.084249084249,,0,-1,1768787209.0536804
1768787209061.493,1441.0256410256409,,0,-1,1768787209.061493
1768787209069.3054,1437.362637362637,,0,-1,1768787209.0693054
1768787209077.118,1426.3736263736262,,0,-1,1768787209.077118
1768787209084.9304,1415.3846153846152,,0,-1,1768787209.0849304
1768787209092.743,1406.5934065934066,,0,-1,1768787209.092743
1768787209100.5554,1402.197802197802,,0,-1,1768787209.1005554
1768787209108.368,1402.197802197802,,0,-1,1768787209.108368
1768787209116.1804,1398.5347985347985,,0,-1,1768787209.1161804
1768787209123.993,1399.2673992673992,,0,-1,1768787209.123993
1768787209131.8054,1394.8717948717947,,0,-1,1768787209.1318054
1768787209139.618,1398.5347985347985,,0,-1,1768787209.139618
1768787209147.4304,1397.069597069597,,0,-1,1768787209.1474304
1768787209155.243,1397.8021978021975,,0,-1,1768787209.155243
1768787209163.0554,1391.2087912087911,,0,-1,1768787209.1630554
1768787209170.868,1382.4175824175825,,0,-1,1768787209.170868
1768787209178.6804,1377.2893772893772,,0,-1,1768787209.1786804
1768787209186.493,1375.8241758241757,,0,-1,1768787209.186493
1768787209194.3054,1375.091575091575,,0,-1,1768787209.1943054
1768787209202.118,1372.8937728937728,,0,-1,1768787209.202118
1768787209209.9304,1372.8937728937728,,0,-1,1768787209.2099304
1768787209217.743,1371.428571428571,,0,-1,1768787209.217743
1768787209225.5554,1372.161172161172,,0,-1,1768787209.2255554
1768787209233.368,1376.5567765567764,,0,-1,1768787209.233368
1768787209241.1804,1377.2893772893772,,0,-1,1768787209.2411804
1768787209248.993,1381.6849816849815,,0,-1,1768787209.248993
1768787209256.8054,1380.952380952381,,0,-1,1768787209.2568054
1768787209264.618,1380.2197802197802,,0,-1,1768787209.264618
1768787209272.4304,1379.4871794871794,,0,-1,1768787209.2724304
1768787209280.243,1378.7545787545787,,0,-1,1768787209.280243
1768787209288.0554,1373.6263736263736,,0,-1,1768787209.2880554
1768787209295.868,1372.8937728937728,,0,-1,1768787209.295868
1768787209303.6804,1364.102564102564,,0,-1,1768787209.3036804
1768787209311.493,1361.904761904762,,0,-1,1768787209.311493
1768787209319.3054,1355.311355311355,,0,-1,1768787209.3193054
1768787209327.118,1353.8461538461538,,0,-1,1768787209.327118
1768787209334.9304,1345.7875457875457,,0,-1,1768787209.3349304
1768787209342.743,1342.124542124542,,0,-1,1768787209.342743
1768787209350.5554,1334.065934065934,,0,-1,1768787209.3505554
1768787209358.368,1328.2051282051282,,0,-1,1768787209.358368
1768787209366.1804,1320.8791208791208,,0,-1,1768787209.3661804
1768787209373.993,1315.7509157509155,,0,-1,1768787209.373993
1768787209381.8054,1312.087912087912,,0,-1,1768787209.3818054
1768787209389.618,1305.4945054945051,,0,-1,1768787209.389618
1768787209397.4304,1306.227106227106,,0,-1,1768787209.3974304
1768787209405.243,1304.7619047619046,,0,-1,1768787209.405243
1768787209413.0554,1309.89010989011,,0,-1,1768787209.4130554
1768787209420.868,1312.8205128205127,,0,-1,1768787209.420868
1768787209428.6804,1314.2857142857142,,0,-1,1768787209.4286804
1768787209436.493,1314.2857142857142,,0,-1,1768787209.436493
1768787209444.3054,1307.6923076923076,,0,-1,1768787209.4443054
1768787209452.118,1305.4945054945051,,0,-1,1768787209.452118
1768787209459.9304,1300.3663003663005,,0,-1,1768787209.4599304
1768787209467.743,1298.168498168498,,0,-1,1768787209.467743
1768787209475.5554,1300.3663003663005,,0,-1,1768787209.4755554
1768787209483.368,1306.227106227106,,0,-1,1768787209.483368
1768787209491.1804,1311.3553113553112,,0,-1,1768787209.4911804
1768787209498.993,1313.5531135531137,,0,-1,1768787209.498993
1768787209506.8054,1315.018315018315,,0,-1,1768787209.5068054
1768787209514.618,1310.6227106227104,,0,-1,1768787209.514618
1768787209522.4304,1311.3553113553112,,0,-1,1768787209.5224304
1768787209530.243,1309.1575091575091,,0,-1,1768787209.530243
1768787209538.0554,1309.89010989011,,0,-1,1768787209.5380554
1768787209545.868,1305.4945054945051,,0,-1,1768787209.545868
1768787209553.6804,1305.4945054945051,,0,-1,1768787209.5536804
1768787209561.493,1301.098901098901,,0,-1,1768787209.561493
1768787209569.3054,1298.168498168498,,0,-1,1768787209.5693054
1768787209577.118,1293.040293040293,,0,-1,1768787209.577118
1768787209584.9304,1295.970695970696,,0,-1,1768787209.5849304
1768787209592.743,1301.098901098901,,0,-1,1768787209.592743
1768787209600.5554,1304.0293040293038,,0,-1,1768787209.6005554
1768787209608.368,1309.89010989011,,0,-1,1768787209.608368
1768787209616.1804,1306.9597069597069,,0,-1,1768787209.6161804
1768787209623.993,1310.6227106227104,,0,-1,1768787209.623993
1768787209631.8054,1312.8205128205127,,0,-1,1768787209.6318054
1768787209639.618,1317.216117216117,,0,-1,1768787209.639618
1768787209647.4304,1323.076923076923,,0,-1,1768787209.6474304
1768787209655.243,1321.6117216117216,,0,-1,1768787209.655243
1768787209663.0554,1321.6117216117216,,0,-1,1768787209.6630554
1768787209670.868,1320.8791208791208,,0,-1,1768787209.670868
1768787209678.6804,1317.9487179487178,,0,-1,1768787209.6786804
1768787209686.493,1317.9487179487178,,0,-1,1768787209.686493
1768787209694.3054,1315.7509157509155,,0,-1,1768787209.6943054
1768787209702.118,1310.6227106227104,,0,-1,1768787209.702118
1768787209709.9304,1313.5531135531137,,0,-1,1768787209.7099304
1768787209717.743,1313.5531135531137,,0,-1,1768787209.717743
1768787209725.5554,1320.14652014652,,0,-1,1768787209.7255554
1768787209733.368,1326.007326007326,,0,-1,1768787209.733368
1768787209741.1804,1328.937728937729,,0,-1,1768787209.7411804
1768787209748.993,1337.7289377289376,,0,-1,1768787209.748993
1768787209756.8054,1345.054945054945,,0,-1,1768787209.7568054
1768787209764.618,1349.4505494505493,,0,-1,1768787209.764618
1768787209772.4304,1358.241758241758,,0,-1,1768787209.7724304
1768787209780.243,1366.3003663003662,,0,-1,1768787209.780243
1768787209788.0554,1379.4871794871794,,0,-1,1768787209.7880554
1768787209795.868,1397.069597069597,,0,-1,1768787209.795868
1768787209803.6804,1410.989010989011,,0,-1,1768787209.8036804
1768787209811.493,1427.106227106227,,0,-1,1768787209.811493
1768787209819.3054,1440.29304029304,,0,-1,1768787209.8193054
1768787209827.118,1446.8864468864467,,0,-1,1768787209.827118
1768787209834.9304,1447.6190476190477,,0,-1,1768787209.8349304
1768787209842.743,1449.084249084249,,0,-1,1768787209.842743
1768787209850.5554,1450.5494505494505,,0,-1,1768787209.8505554
1768787209858.368,1449.084249084249,,0,-1,1768787209.858368
1768787209866.1804,1444.688644688645,,0,-1,1768787209.8661804
1768787209873.993,1443.956043956044,,0,-1,1768787209.873993
1768787209881.8054,1441.0256410256409,,0,-1,1768787209.8818054
1768787209889.618,1443.956043956044,,0,-1,1768787209.889618
1768787209897.4304,1451.2820512820513,,0,-1,1768787209.8974304
1768787209905.243,1454.212454212454,,0,-1,1768787209.905243
1768787209913.0554,1456.4102564102564,,0,-1,1768787209.9130554
1768787209920.868,1460.805860805861,,0,-1,1768787209.920868
1768787209928.6804,1458.6080586080584,,0,-1,1768787209.9286804
1768787209936.493,1455.6776556776556,,0,-1,1768787209.936493
1768787209944.3054,1449.084249084249,,0,-1,1768787209.9443054
1768787209952.118,1438.095238095238,,0,-1,1768787209.952118
1768787209959.9304,1434.4322344322345,,0,-1,1768787209.9599304
1768787209967.743,1429.3040293040292,,0,-1,1768787209.967743
1768787209975.5554,1425.6410256410256,,0,-1,1768787209.9755554
1768787209983.368,1427.106227106227,,0,-1,1768787209.983368
1768787209991.1804,1426.3736263736262,,0,-1,1768787209.9911804
1768787209998.993,1426.3736263736262,,0,-1,1768787209.998993
1768787210006.8054,1424.9084249084249,,0,-1,1768787210.0068054
1768787210014.618,1413.9194139194135,,0,-1,1768787210.014618
1768787210022.4304,1405.128205128205,,0,-1,1768787210.0224304
1768787210030.243,1392.6739926739926,,0,-1,1768787210.030243
1768787210038.0554,1385.3479853479853,,0,-1,1768787210.0380554
1768787210045.868,1380.952380952381,,0,-1,1768787210.045868
1768787210053.6804,1375.091575091575,,0,-1,1768787210.0536804
1768787210061.493,1374.3589743589744,,0,-1,1768787210.061493
1768787210069.3054,1378.7545787545787,,0,-1,1768787210.0693054
1768787210077.118,1380.952380952381,,0,-1,1768787210.077118
1768787210084.9304,1389.0109890109889,,0,-1,1768787210.0849304
1768787210092.743,1394.8717948717947,,0,-1,1768787210.092743
1768787210100.5554,1398.5347985347985,,0,-1,1768787210.1005554
1768787210108.368,1405.128205128205,,0,-1,1768787210.108368
1768787210116.1804,1402.197802197802,,0,-1,1768787210.1161804
1768787210123.993,1396.3369963369962,,0,-1,1768787210.123993
1768787210131.8054,1390.4761904761904,,0,-1,1768787210.1318054
1768787210139.618,1380.952380952381,,0,-1,1768787210.139618
1768787210147.4304,1376.5567765567764,,0,-1,1768787210.1474304
1768787210155.243,1372.8937728937728,,0,-1,1768787210.155243
1768787210163.0554,1367.032967032967,,0,-1,1768787210.1630554
1768787210170.868,1361.904761904762,,0,-1,1768787210.170868
1768787210178.6804,1361.904761904762,,0,-1,1768787210.1786804
1768787210186.493,1357.5091575091574,,0,-1,1768787210.186493
1768787210194.3054,1351.6483516483515,,0,-1,1768787210.1943054
1768787210202.118,1349.4505494505493,,0,-1,1768787210.202118
1768787210209.9304,1345.7875457875457,,0,-1,1768787210.2099304
1768787210217.743,1342.124542124542,,0,-1,1768787210.217743
1768787210225.5554,1344.3223443223442,,0,-1,1768787210.2255554
1768787210233.368,1346.5201465201465,,0,-1,1768787210.233368
1768787210241.1804,1342.857142857143,,0,-1,1768787210.2411804
1768787210248.993,1340.6593406593406,,0,-1,1768787210.248993
1768787210256.8054,1334.7985347985348,,0,-1,1768787210.2568054
1768787210264.618,1327.4725274725274,,0,-1,1768787210.264618
1768787210272.4304,1321.6117216117216,,0,-1,1768787210.2724304
1768787210280.243,1319.4139194139193,,0,-1,1768787210.280243
1768787210288.0554,1315.7509157509155,,0,-1,1768787210.2880554
1768787210295.868,1308.4249084249084,,0,-1,1768787210.295868
1768787210303.6804,1300.3663003663005,,0,-1,1768787210.3036804
1768787210311.493,1298.168498168498,,0,-1,1768787210.311493
1768787210319.3054,1300.3663003663005,,0,-1,1768787210.3193054
1768787210327.118,1304.7619047619046,,0,-1,1768787210.327118
1768787210334.9304,1306.9597069597069,,0,-1,1768787210.3349304
1768787210342.743,1306.227106227106,,0,-1,1768787210.342743
1768787210350.5554,1306.9597069597069,,0,-1,1768787210.3505554
1768787210358.368,1303.2967032967033,,0,-1,1768787210.358368
1768787210366.1804,1298.9010989010987,,0,-1,1768787210.3661804
1768787210373.993,1296.7032967032967,,0,-1,1768787210.373993
1768787210381.8054,1294.5054945054944,,0,-1,1768787210.3818054
1768787210389.618,1291.5750915750914,,0,-1,1768787210.389618
1768787210397.4304,1290.10989010989,,0,-1,1768787210.3974304
1768787210405.243,1289.3772893772891,,0,-1,1768787210.405243
1768787210413.0554,1290.8424908424909,,0,-1,1768787210.4130554
1768787210420.868,1291.5750915750914,,0,-1,1768787210.420868
1768787210428.6804,1293.040293040293,,0,-1,1768787210.4286804
1768787210436.493,1293.7728937728937,,0,-1,1768787210.436493
1768787210444.3054,1292.3076923076922,,0,-1,1768787210.4443054
1768787210452.118,1290.10989010989,,0,-1,1768787210.452118
1768787210459.9304,1287.9120879120878,,0,-1,1768787210.4599304
1768787210467.743,1285.7142857142856,,0,-1,1768787210.467743
1768787210475.5554,1280.5860805860805,,0,-1,1768787210.4755554
1768787210483.368,1280.5860805860805,,0,-1,1768787210.483368
1768787210491.1804,1280.5860805860805,,0,-1,1768787210.4911804
1768787210498.993,1281.3186813186812,,0,-1,1768787210.498993
1768787210506.8054,1282.7838827838827,,0,-1,1768787210.5068054
1768787210514.618,1285.7142857142856,,0,-1,1768787210.514618
1768787210522.4304,1289.3772893772891,,0,-1,1768787210.5224304
1768787210530.243,1290.8424908424909,,0,-1,1768787210.530243
1768787210538.0554,1287.179487179487,,0,-1,1768787210.5380554
1768787210545.868,1282.051282051282,,0,-1,1768787210.545868
1768787210553.6804,1279.8534798534797,,0,-1,1768787210.5536804
1768787210561.493,1281.3186813186812,,0,-1,1768787210.561493
1768787210569.3054,1284.9816849816848,,0,-1,1768787210.5693054
1768787210577.118,1285.7142857142856,,0,-1,1768787210.577118
1768787210584.9304,1286.4468864468863,,0,-1,1768787210.5849304
1768787210592.743,1278.3882783882782,,0,-1,1768787210.592743
1768787210600.5554,1268.131868131868,,0,-1,1768787210.6005554
1768787210608.368,1257.142857142857,,0,-1,1768787210.608368
1768787210616.1804,1249.084249084249,,1,2,1768787210.6161804
1768787210623.993,1246.153846153846,,1,2,1768787210.623993
1768787210631.8054,1247.6190476190477,,1,2,1768787210.6318054
1768787210639.618,1252.014652014652,,1,2,1768787210.639618
1768787210647.4304,1258.6080586080586,,1,2,1768787210.6474304
1768787210655.243,1263.003663003663,,1,2,1768787210.655243
1768787210663.0554,1266.6666666666663,,1,2,1768787210.6630554
1768787210670.868,1267.3992673992673,,1,2,1768787210.670868
1768787210678.6804,1264.4688644688645,,1,2,1768787210.6786804
1768787210686.493,1260.07326007326,,1,2,1768787210.686493
1768787210694.3054,1260.07326007326,,1,2,1768787210.6943054
1768787210702.118,1259.3406593406592,,1,2,1768787210.702118
1768787210709.9304,1261.5384615384614,,1,2,1768787210.7099304
1768787210717.743,1267.3992673992673,,1,2,1768787210.717743
1768787210725.5554,1273.260073260073,,1,2,1768787210.7255554
1768787210733.368,1276.923076923077,,1,2,1768787210.733368
1768787210741.1804,1282.051282051282,,1,2,1768787210.7411804
1768787210748.993,1290.8424908424909,,1,2,1768787210.748993
1768787210756.8054,1300.3663003663005,,1,2,1768787210.7568054
1768787210764.618,1312.087912087912,,1,2,1768787210.764618
1768787210772.4304,1323.8095238095236,,1,2,1768787210.7724304
1768787210780.243,1333.3333333333333,,1,2,1768787210.780243
1768787210788.0554,1341.3919413919414,,1,2,1768787210.7880554
1768787210795.868,1349.4505494505493,,1,2,1768787210.795868
1768787210803.6804,1355.311355311355,,1,2,1768787210.8036804
1768787210811.493,1360.4395604395604,,1,2,1768787210.811493
1768787210819.3054,1365.5677655677655,,1,2,1768787210.8193054
1768787210827.118,1367.7655677655678,,1,2,1768787210.827118
1768787210834.9304,1369.9633699633698,,1,2,1768787210.8349304
1768787210842.743,1372.161172161172,,1,2,1768787210.842743
1768787210850.5554,1375.091575091575,,1,2,1768787210.8505554
1768787210858.368,1375.8241758241757,,1,2,1768787210.858368
1768787210866.1804,1373.6263736263736,,1,2,1768787210.8661804
1768787210873.993,1369.9633699633698,,1,2,1768787210.873993
1768787210881.8054,1367.032967032967,,1,2,1768787210.8818054
1768787210889.618,1361.1721611721612,,1,2,1768787210.889618
1768787210897.4304,1358.974358974359,,1,2,1768787210.8974304
1768787210905.243,1358.974358974359,,1,2,1768787210.905243
1768787210913.0554,1356.043956043956,,1,2,1768787210.9130554
1768787210920.868,1355.311355311355,,1,2,1768787210.920868
1768787210928.6804,1355.311355311355,,1,2,1768787210.9286804
1768787210936.493,1353.113553113553,,1,2,1768787210.936493
1768787210944.3054,1353.8461538461538,,1,2,1768787210.9443054
1768787210952.118,1356.043956043956,,1,2,1768787210.952118
1768787210959.9304,1361.904761904762,,1,2,1768787210.9599304
1768787210967.743,1369.230769230769,,1,2,1768787210.967743
1768787210975.5554,1374.3589743589744,,1,2,1768787210.9755554
1768787210983.368,1375.8241758241757,,1,2,1768787210.983368
1768787210991.1804,1375.8241758241757,,1,2,1768787210.9911804
1768787210998.993,1375.8241758241757,,1,2,1768787210.998993
1768787211006.8054,1374.3589743589744,,1,2,1768787211.0068054
1768787211014.618,1375.8241758241757,,1,2,1768787211.014618
1768787211022.4304,1376.5567765567764,,1,2,1768787211.0224304
1768787211030.243,1373.6263736263736,,1,2,1768787211.030243
1768787211038.0554,1368.4981684981683,,1,2,1768787211.0380554
1768787211045.868,1363.3699633699632,,1,2,1768787211.045868
1768787211053.6804,1360.4395604395604,,1,2,1768787211.0536804
1768787211061.493,1357.5091575091574,,1,2,1768787211.061493
1768787211069.3054,1354.5787545787546,,1,2,1768787211.0693054
1768787211077.118,1350.18315018315,,1,2,1768787211.077118
1768787211084.9304,1339.92673992674,,1,2,1768787211.0849304
1768787211092.743,1329.6703296703297,,1,2,1768787211.092743
1768787211100.5554,1323.076923076923,,1,2,1768787211.1005554
1768787211108.368,1318.6813186813183,,1,2,1768787211.108368
1768787211116.1804,1313.5531135531137,,1,2,1768787211.1161804
1768787211123.993,1311.3553113553112,,1,2,1768787211.123993
1768787211131.8054,1312.8205128205127,,1,2,1768787211.1318054
1768787211139.618,1315.018315018315,,1,2,1768787211.139618
1768787211147.4304,1315.018315018315,,1,2,1768787211.1474304
1768787211155.243,1312.8205128205127,,1,2,1768787211.155243
1768787211163.0554,1310.6227106227104,,1,2,1768787211.1630554
1768787211170.868,1304.7619047619046,,1,2,1768787211.170868
1768787211178.6804,1294.5054945054944,,1,2,1768787211.1786804
1768787211186.493,1281.3186813186812,,1,2,1768787211.186493
1768787211194.3054,1273.992673992674,,1,2,1768787211.1943054
1768787211202.118,1275.4578754578754,,1,2,1768787211.202118
1768787211209.9304,1285.7142857142856,,1,2,1768787211.2099304
1768787211217.743,1299.6336996336995,,1,2,1768787211.217743
1768787211225.5554,1307.6923076923076,,1,2,1768787211.2255554
1768787211233.368,1312.8205128205127,,1,2,1768787211.233368
1768787211241.1804,1315.018315018315,,1,2,1768787211.2411804
1768787211248.993,1317.216117216117,,1,2,1768787211.248993
1768787211256.8054,1320.14652014652,,1,2,1768787211.2568054
1768787211264.618,1326.739926739927,,1,2,1768787211.264618
1768787211272.4304,1332.6007326007325,,1,2,1768787211.2724304
1768787211280.243,1338.4615384615383,,1,2,1768787211.280243
1768787211288.0554,1344.3223443223442,,1,2,1768787211.2880554
1768787211295.868,1347.985347985348,,1,2,1768787211.295868
1768787211303.6804,1348.7179487179487,,1,2,1768787211.3036804
1768787211311.493,1346.5201465201465,,1,2,1768787211.311493
1768787211319.3054,1345.054945054945,,1,2,1768787211.3193054
1768787211327.118,1347.2527472527472,,1,2,1768787211.327118
1768787211334.9304,1350.9157509157508,,1,2,1768787211.3349304
1768787211342.743,1351.6483516483515,,1,2,1768787211.342743
1768787211350.5554,1352.3809523809523,,1,2,1768787211.3505554
1768787211358.368,1351.6483516483515,,1,2,1768787211.358368
1768787211366.1804,1349.4505494505493,,1,2,1768787211.3661804
1768787211373.993,1345.7875457875457,,1,2,1768787211.373993
1768787211381.8054,1339.92673992674,,1,2,1768787211.3818054
1768787211389.618,1333.3333333333333,,1,2,1768787211.389618
1768787211397.4304,1329.6703296703297,,1,2,1768787211.3974304
1768787211405.243,1326.007326007326,,1,2,1768787211.405243
1768787211413.0554,1326.007326007326,,1,2,1768787211.4130554
1768787211420.868,1323.8095238095236,,1,2,1768787211.420868
1768787211428.6804,1321.6117216117216,,1,2,1768787211.4286804
1768787211436.493,1319.4139194139193,,1,2,1768787211.436493
1768787211444.3054,1320.8791208791208,,1,2,1768787211.4443054
1768787211452.118,1320.14652014652,,1,2,1768787211.452118
1768787211459.9304,1318.6813186813183,,1,2,1768787211.4599304
1768787211467.743,1314.2857142857142,,1,2,1768787211.467743
1768787211475.5554,1312.8205128205127,,1,2,1768787211.4755554
1768787211483.368,1310.6227106227104,,1,2,1768787211.483368
1768787211491.1804,1308.4249084249084,,1,2,1768787211.4911804
1768787211498.993,1305.4945054945051,,1,2,1768787211.498993
1768787211506.8054,1304.0293040293038,,1,2,1768787211.5068054
1768787211514.618,1306.227106227106,,1,2,1768787211.514618
1768787211522.4304,1312.8205128205127,,1,2,1768787211.5224304
1768787211530.243,1318.6813186813183,,1,2,1768787211.530243
1768787211538.0554,1323.076923076923,,1,2,1768787211.5380554
1768787211545.868,1326.739926739927,,1,2,1768787211.545868
1768787211553.6804,1328.937728937729,,1,2,1768787211.5536804
1768787211561.493,1327.4725274725274,,1,2,1768787211.561493
1768787211569.3054,1322.3443223443223,,1,2,1768787211.5693054
1768787211577.118,1316.4835164835165,,1,2,1768787211.577118
1768787211584.9304,1311.3553113553112,,1,2,1768787211.5849304
1768787211592.743,1309.89010989011,,1,2,1768787211.592743
1768787211600.5554,1308.4249084249084,,1,2,1768787211.6005554
1768787211608.368,1308.4249084249084,,1,2,1768787211.608368
1768787211616.1804,1310.6227106227104,,1,2,1768787211.6161804
1768787211623.993,1312.8205128205127,,1,2,1768787211.623993
1768787211631.8054,1309.1575091575091,,1,2,1768787211.6318054
1768787211639.618,1304.7619047619046,,1,2,1768787211.639618
1768787211647.4304,1301.098901098901,,1,2,1768787211.6474304
1768787211655.243,1299.6336996336995,,1,2,1768787211.655243
1768787211663.0554,1298.168498168498,,1,2,1768787211.6630554
1768787211670.868,1297.4358974358977,,1,2,1768787211.670868
1768787211678.6804,1301.098901098901,,1,2,1768787211.6786804
1768787211686.493,1306.9597069597069,,1,2,1768787211.686493
1768787211694.3054,1313.5531135531137,,1,2,1768787211.6943054
1768787211702.118,1320.8791208791208,,1,2,1768787211.702118
1768787211709.9304,1331.8681318681315,,1,2,1768787211.7099304
1768787211717.743,1344.3223443223442,,1,2,1768787211.717743
1768787211725.5554,1358.974358974359,,1,2,1768787211.7255554
1768787211733.368,1372.8937728937728,,1,2,1768787211.733368
1768787211741.1804,1383.150183150183,,1,2,1768787211.7411804
1768787211748.993,1389.0109890109889,,1,2,1768787211.748993
1768787211756.8054,1391.2087912087911,,1,2,1768787211.7568054
1768787211764.618,1394.139194139194,,1,2,1768787211.764618
1768787211772.4304,1398.5347985347985,,1,2,1768787211.7724304
1768787211780.243,1395.6043956043954,,1,2,1768787211.780243
1768787211788.0554,1389.0109890109889,,1,2,1768787211.7880554
1768787211795.868,1386.8131868131868,,1,2,1768787211.795868
1768787211803.6804,1386.8131868131868,,1,2,1768787211.8036804
1768787211811.493,1388.278388278388,,1,2,1768787211.811493
1768787211819.3054,1386.080586080586,,1,2,1768787211.8193054
1768787211827.118,1386.8131868131868,,1,2,1768787211.827118
1768787211834.9304,1385.3479853479853,,1,2,1768787211.8349304
1768787211842.743,1380.952380952381,,1,2,1768787211.842743
1768787211850.5554,1376.5567765567764,,1,2,1768787211.8505554
1768787211858.368,1375.091575091575,,1,2,1768787211.858368
1768787211866.1804,1375.091575091575,,1,2,1768787211.8661804
1768787211873.993,1374.3589743589744,,1,2,1768787211.873993
1768787211881.8054,1371.428571428571,,1,2,1768787211.8818054
1768787211889.618,1367.7655677655678,,1,2,1768787211.889618
1768787211897.4304,1362.6373626373625,,1,2,1768787211.8974304
1768787211905.243,1359.7069597069597,,1,2,1768787211.905243
1768787211913.0554,1359.7069597069597,,1,2,1768787211.9130554
1768787211920.868,1360.4395604395604,,1,2,1768787211.920868
1768787211928.6804,1360.4395604395604,,1,2,1768787211.9286804
1768787211936.493,1360.4395604395604,,1,2,1768787211.936493
1768787211944.3054,1361.904761904762,,1,2,1768787211.9443054
1768787211952.118,1361.1721611721612,,1,2,1768787211.952118
1768787211959.9304,1357.5091575091574,,1,2,1768787211.9599304
1768787211967.743,1353.8461538461538,,1,2,1768787211.967743
1768787211975.5554,1349.4505494505493,,1,2,1768787211.9755554
1768787211983.368,1339.92673992674,,1,2,1768787211.983368
1768787211991.1804,1330.4029304029302,,1,2,1768787211.9911804
1768787211998.993,1323.8095238095236,,1,2,1768787211.998993
1768787212006.8054,1318.6813186813183,,1,2,1768787212.0068054
1768787212014.618,1315.7509157509155,,1,2,1768787212.014618
1768787212022.4304,1312.087912087912,,1,2,1768787212.0224304
1768787212030.243,1310.6227106227104,,1,2,1768787212.030243
1768787212038.0554,1315.7509157509155,,1,2,1768787212.0380554
1768787212045.868,1322.3443223443223,,1,2,1768787212.045868
1768787212053.6804,1332.6007326007325,,1,2,1768787212.0536804
1768787212061.493,1339.92673992674,,1,2,1768787212.061493
1768787212069.3054,1347.985347985348,,1,2,1768787212.0693054
1768787212077.118,1354.5787545787546,,1,2,1768787212.077118
1768787212084.9304,1358.974358974359,,1,2,1768787212.0849304
1768787212092.743,1363.3699633699632,,1,2,1768787212.092743
1768787212100.5554,1362.6373626373625,,1,2,1768787212.1005554
1768787212108.368,1359.7069597069597,,1,2,1768787212.108368
1768787212116.1804,1355.311355311355,,1,2,1768787212.1161804
1768787212123.993,1351.6483516483515,,1,2,1768787212.123993
1768787212131.8054,1348.7179487179487,,1,2,1768787212.1318054
1768787212139.618,1347.985347985348,,1,2,1768787212.139618
1768787212147.4304,1346.5201465201465,,1,2,1768787212.1474304
1768787212155.243,1339.194139194139,,1,2,1768787212.155243
1768787212163.0554,1328.937728937729,,1,2,1768787212.1630554
1768787212170.868,1323.8095238095236,,1,2,1768787212.170868
1768787212178.6804,1321.6117216117216,,1,2,1768787212.1786804
1768787212186.493,1319.4139194139193,,1,2,1768787212.186493
1768787212194.3054,1321.6117216117216,,1,2,1768787212.1943054
1768787212202.118,1325.2747252747251,,1,2,1768787212.202118
1768787212209.9304,1326.739926739927,,1,2,1768787212.2099304
1768787212217.743,1323.076923076923,,1,2,1768787212.217743
1768787212225.5554,1322.3443223443223,,1,2,1768787212.2255554
1768787212233.368,1324.5421245421244,,1,2,1768787212.233368
1768787212241.1804,1326.739926739927,,1,2,1768787212.2411804
1768787212248.993,1322.3443223443223,,1,2,1768787212.248993
1768787212256.8054,1318.6813186813183,,1,2,1768787212.2568054
1768787212264.618,1317.9487179487178,,1,2,1768787212.264618
1768787212272.4304,1315.018315018315,,1,2,1768787212.2724304
1768787212280.243,1310.6227106227104,,1,2,1768787212.280243
1768787212288.0554,1310.6227106227104,,1,2,1768787212.2880554
1768787212295.868,1310.6227106227104,,1,2,1768787212.295868
1768787212303.6804,1307.6923076923076,,1,2,1768787212.3036804
1768787212311.493,1307.6923076923076,,1,2,1768787212.311493
1768787212319.3054,1306.227106227106,,1,2,1768787212.3193054
1768787212327.118,1301.098901098901,,1,2,1768787212.327118
1768787212334.9304,1297.4358974358977,,1,2,1768787212.3349304
1768787212342.743,1298.168498168498,,1,2,1768787212.342743
1768787212350.5554,1304.7619047619046,,1,2,1768787212.3505554
1768787212358.368,1310.6227106227104,,1,2,1768787212.358368
1768787212366.1804,1320.14652014652,,1,2,1768787212.3661804
1768787212373.993,1325.2747252747251,,1,2,1768787212.373993
1768787212381.8054,1325.2747252747251,,1,2,1768787212.3818054
1768787212389.618,1326.007326007326,,1,2,1768787212.389618
1768787212397.4304,1323.076923076923,,1,2,1768787212.3974304
1768787212405.243,1319.4139194139193,,1,2,1768787212.405243
1768787212413.0554,1316.4835164835165,,1,2,1768787212.4130554
1768787212420.868,1317.9487179487178,,1,2,1768787212.420868
1768787212428.6804,1316.4835164835165,,1,2,1768787212.4286804
1768787212436.493,1311.3553113553112,,1,2,1768787212.436493
1768787212444.3054,1309.1575091575091,,1,2,1768787212.4443054
1768787212452.118,1311.3553113553112,,1,2,1768787212.452118
1768787212459.9304,1314.2857142857142,,1,2,1768787212.4599304
1768787212467.743,1316.4835164835165,,1,2,1768787212.467743
1768787212475.5554,1319.4139194139193,,1,2,1768787212.4755554
1768787212483.368,1321.6117216117216,,1,2,1768787212.483368
1768787212491.1804,1324.5421245421244,,1,2,1768787212.4911804
1768787212498.993,1325.2747252747251,,1,2,1768787212.498993
1768787212506.8054,1320.14652014652,,1,2,1768787212.5068054
1768787212514.618,1313.5531135531137,,1,2,1768787212.514618
1768787212522.4304,1310.6227106227104,,1,2,1768787212.5224304
1768787212530.243,1302.5641025641023,,1,2,1768787212.530243
1768787212538.0554,1301.098901098901,,1,2,1768787212.5380554
1768787212545.868,1299.6336996336995,,1,2,1768787212.545868
1768787212553.6804,1304.0293040293038,,1,2,1768787212.5536804
1768787212561.493,1310.6227106227104,,1,2,1768787212.561493
1768787212569.3054,1317.216117216117,,1,2,1768787212.5693054
1768787212577.118,1325.2747252747251,,1,2,1768787212.577118
1768787212584.9304,1336.9963369963368,,1,2,1768787212.5849304
1768787212592.743,1346.5201465201465,,1,2,1768787212.592743
1768787212600.5554,1356.043956043956,,1,2,1768787212.6005554
1768787212608.368,1364.8351648351647,,1,2,1768787212.608368
1768787212616.1804,1364.8351648351647,,1,2,1768787212.6161804
1768787212623.993,1364.102564102564,,1,2,1768787212.623993
1768787212631.8054,1367.032967032967,,1,2,1768787212.6318054
1768787212639.618,1367.7655677655678,,1,2,1768787212.639618
1768787212647.4304,1369.230769230769,,1,2,1768787212.6474304
1768787212655.243,1370.6959706959706,,1,2,1768787212.655243
1768787212663.0554,1375.091575091575,,1,2,1768787212.6630554
1768787212670.868,1382.4175824175825,,1,2,1768787212.670868
1768787212678.6804,1384.6153846153843,,1,2,1768787212.6786804
1768787212686.493,1389.7435897435896,,1,2,1768787212.686493
1768787212694.3054,1393.4065934065934,,0,-1,1768787212.6943054
1768787212702.118,1390.4761904761904,,0,-1,1768787212.702118
1768787212709.9304,1389.7435897435896,,0,-1,1768787212.7099304
1768787212717.743,1386.8131868131868,,0,-1,1768787212.717743
1768787212725.5554,1383.150183150183,,0,-1,1768787212.7255554
1768787212733.368,1380.952380952381,,0,-1,1768787212.733368
1768787212741.1804,1373.6263736263736,,0,-1,1768787212.7411804
1768787212748.993,1364.102564102564,,0,-1,1768787212.748993
1768787212756.8054,1354.5787545787546,,0,-1,1768787212.7568054
1768787212764.618,1345.054945054945,,0,-1,1768787212.764618
1768787212772.4304,1341.3919413919414,,0,-1,1768787212.7724304
1768787212780.243,1332.6007326007325,,0,-1,1768787212.780243
1768787212788.0554,1328.937728937729,,0,-1,1768787212.7880554
1768787212795.868,1318.6813186813183,,0,-1,1768787212.795868
1768787212803.6804,1315.018315018315,,0,-1,1768787212.8036804
1768787212811.493,1309.1575091575091,,0,-1,1768787212.811493
1768787212819.3054,1300.3663003663005,,0,-1,1768787212.8193054
1768787212827.118,1294.5054945054944,,0,-1,1768787212.827118
1768787212834.9304,1286.4468864468863,,0,-1,1768787212.8349304
1768787212842.743,1282.7838827838827,,0,-1,1768787212.842743
1768787212850.5554,1274.7252747252746,,0,-1,1768787212.8505554
1768787212858.368,1271.062271062271,,0,-1,1768787212.858368
1768787212866.1804,1269.5970695970695,,0,-1,1768787212.8661804
1768787212873.993,1260.805860805861,,0,-1,1768787212.873993
1768787212881.8054,1255.6776556776556,,0,-1,1768787212.8818054
1768787212889.618,1249.8168498168498,,0,-1,1768787212.889618
1768787212897.4304,1238.8278388278388,,0,-1,1768787212.8974304
1768787212905.243,1227.106227106227,,0,-1,1768787212.905243
1768787212913.0554,1219.047619047619,,0,-1,1768787212.9130554
1768787212920.868,1205.128205128205,,0,-1,1768787212.920868
1768787212928.6804,1194.8717948717947,,0,-1,1768787212.9286804
1768787212936.493,1187.5457875457876,,0,-1,1768787212.936493
1768787212944.3054,1176.5567765567764,,0,-1,1768787212.9443054
1768787212952.118,1172.161172161172,,0,-1,1768787212.952118
1768787212959.9304,1170.6959706959706,,0,-1,1768787212.9599304
1768787212967.743,1167.032967032967,,0,-1,1768787212.967743
1768787212975.5554,1170.6959706959706,,0,-1,1768787212.9755554
1768787212983.368,1172.8937728937728,,0,-1,1768787212.983368
1768787212991.1804,1172.161172161172,,0,-1,1768787212.9911804
1768787212998.993,1167.7655677655678,,0,-1,1768787212.998993
1768787213006.8054,1160.4395604395604,,0,-1,1768787213.0068054
1768787213014.618,1158.974358974359,,0,-1,1768787213.014618
1768787213022.4304,1156.043956043956,,0,-1,1768787213.0224304
1768787213030.243,1165.5677655677655,,0,-1,1768787213.030243
1768787213038.0554,1181.6849816849815,,0,-1,1768787213.0380554
1768787213045.868,1206.5934065934066,,0,-1,1768787213.045868
1768787213053.6804,1232.2344322344322,,0,-1,1768787213.0536804
1768787213061.493,1254.212454212454,,0,-1,1768787213.061493
1768787213069.3054,1272.5274725274724,,0,-1,1768787213.0693054
1768787213077.118,1284.2490842490845,,0,-1,1768787213.077118
1768787213084.9304,1295.2380952380952,,0,-1,1768787213.0849304
1768787213092.743,1298.168498168498,,0,-1,1768787213.092743
1768787213100.5554,1302.5641025641023,,0,-1,1768787213.1005554
1768787213108.368,1306.9597069597069,,0,-1,1768787213.108368
1768787213116.1804,1307.6923076923076,,0,-1,1768787213.1161804
1768787213123.993,1312.8205128205127,,0,-1,1768787213.123993
1768787213131.8054,1319.4139194139193,,0,-1,1768787213.1318054
1768787213139.618,1323.076923076923,,0,-1,1768787213.139618
1768787213147.4304,1323.076923076923,,0,-1,1768787213.1474304
1768787213155.243,1326.739926739927,,0,-1,1768787213.155243
1768787213163.0554,1329.6703296703297,,0,-1,1768787213.1630554
1768787213170.868,1327.4725274725274,,0,-1,1768787213.170868
1768787213178.6804,1318.6813186813183,,0,-1,1768787213.1786804
1768787213186.493,1309.1575091575091,,0,-1,1768787213.186493
1768787213194.3054,1301.098901098901,,0,-1,1768787213.1943054
1768787213202.118,1297.4358974358977,,0,-1,1768787213.202118
1768787213209.9304,1295.2380952380952,,0,-1,1768787213.2099304
1768787213217.743,1302.5641025641023,,0,-1,1768787213.217743
1768787213225.5554,1309.1575091575091,,0,-1,1768787213.2255554
1768787213233.368,1320.8791208791208,,0,-1,1768787213.233368
1768787213241.1804,1332.6007326007325,,0,-1,1768787213.2411804
1768787213248.993,1337.7289377289376,,0,-1,1768787213.248993
1768787213256.8054,1345.054945054945,,0,-1,1768787213.2568054
1768787213264.618,1350.9157509157508,,0,-1,1768787213.264618
1768787213272.4304,1361.904761904762,,0,-1,1768787213.2724304
1768787213280.243,1367.032967032967,,0,-1,1768787213.280243
1768787213288.0554,1374.3589743589744,,0,-1,1768787213.2880554
1768787213295.868,1375.8241758241757,,0,-1,1768787213.295868
1768787213303.6804,1367.032967032967,,0,-1,1768787213.3036804
1768787213311.493,1358.241758241758,,0,-1,1768787213.311493
1768787213319.3054,1348.7179487179487,,0,-1,1768787213.3193054
1768787213327.118,1341.3919413919414,,0,-1,1768787213.327118
1768787213334.9304,1336.9963369963368,,0,-1,1768787213.3349304
1768787213342.743,1330.4029304029302,,0,-1,1768787213.342743
1768787213350.5554,1317.216117216117,,0,-1,1768787213.3505554
1768787213358.368,1305.4945054945051,,0,-1,1768787213.358368
1768787213366.1804,1288.6446886446886,,0,-1,1768787213.3661804
1768787213373.993,1277.6556776556777,,0,-1,1768787213.373993
1768787213381.8054,1266.6666666666663,,0,-1,1768787213.3818054
1768787213389.618,1264.4688644688645,,0,-1,1768787213.389618
1768787213397.4304,1268.8644688644688,,0,-1,1768787213.3974304
1768787213405.243,1276.190476190476,,0,-1,1768787213.405243
1768787213413.0554,1287.9120879120878,,0,-1,1768787213.4130554
1768787213420.868,1305.4945054945051,,0,-1,1768787213.420868
1768787213428.6804,1329.6703296703297,,0,-1,1768787213.4286804
1768787213436.493,1349.4505494505493,,0,-1,1768787213.436493
1768787213444.3054,1369.9633699633698,,0,-1,1768787213.4443054
1768787213452.118,1383.8827838827838,,0,-1,1768787213.452118
1768787213459.9304,1396.3369963369962,,0,-1,1768787213.4599304
1768787213467.743,1397.069597069597,,0,-1,1768787213.467743
1768787213475.5554,1402.9304029304028,,0,-1,1768787213.4755554
1768787213483.368,1407.3260073260071,,0,-1,1768787213.483368
1768787213491.1804,1419.047619047619,,0,-1,1768787213.4911804
1768787213498.993,1425.6410256410256,,0,-1,1768787213.498993
1768787213506.8054,1432.9670329670328,,0,-1,1768787213.5068054
1768787213514.618,1435.8974358974358,,0,-1,1768787213.514618
1768787213522.4304,1441.7582417582416,,0,-1,1768787213.5224304
1768787213530.243,1441.7582417582416,,0,-1,1768787213.530243
1768787213538.0554,1446.8864468864467,,0,-1,1768787213.5380554
1768787213545.868,1446.153846153846,,0,-1,1768787213.545868
1768787213553.6804,1454.212454212454,,0,-1,1768787213.5536804
1768787213561.493,1460.07326007326,,0,-1,1768787213.561493
1768787213569.3054,1469.5970695970695,,0,-1,1768787213.5693054
1768787213577.118,1476.923076923077,,0,-1,1768787213.577118
1768787213584.9304,1483.5164835164835,,0,-1,1768787213.5849304
1768787213592.743,1494.5054945054944,,0,-1,1768787213.592743
1768787213600.5554,1499.6336996336995,,0,-1,1768787213.6005554
1768787213608.368,1501.098901098901,,0,-1,1768787213.608368
1768787213616.1804,1501.098901098901,,0,-1,1768787213.6161804
1768787213623.993,1495.970695970696,,0,-1,1768787213.623993
1768787213631.8054,1488.6446886446886,,0,-1,1768787213.6318054
1768787213639.618,1484.2490842490845,,0,-1,1768787213.639618
1768787213647.4304,1478.3882783882782,,0,-1,1768787213.6474304
1768787213655.243,1470.3296703296703,,0,-1,1768787213.655243
1768787213663.0554,1465.201465201465,,0,-1,1768787213.6630554
1768787213670.868,1461.5384615384614,,0,-1,1768787213.670868
1768787213678.6804,1452.7472527472526,,0,-1,1768787213.6786804
1768787213686.493,1441.7582417582416,,0,-1,1768787213.686493
1768787213694.3054,1437.362637362637,,0,-1,1768787213.6943054
1768787213702.118,1435.8974358974358,,0,-1,1768787213.702118
1768787213709.9304,1433.6996336996335,,0,-1,1768787213.7099304
1768787213717.743,1427.8388278388277,,0,-1,1768787213.717743
1768787213725.5554,1422.7106227106226,,0,-1,1768787213.7255554
1768787213733.368,1420.5128205128203,,0,-1,1768787213.733368
1768787213741.1804,1416.8498168498168,,0,-1,1768787213.7411804
1768787213748.993,1414.6520146520145,,0,-1,1768787213.748993
1768787213756.8054,1412.4542124542124,,0,-1,1768787213.7568054
1768787213764.618,1417.5824175824175,,0,-1,1768787213.764618
1768787213772.4304,1424.9084249084249,,0,-1,1768787213.7724304
1768787213780.243,1430.03663003663,,0,-1,1768787213.780243
1768787213788.0554,1434.4322344322345,,0,-1,1768787213.7880554
1768787213795.868,1435.164835164835,,0,-1,1768787213.795868
1768787213803.6804,1435.164835164835,,0,-1,1768787213.8036804
1768787213811.493,1430.03663003663,,0,-1,1768787213.811493
1768787213819.3054,1424.175824175824,,0,-1,1768787213.8193054
1768787213827.118,1418.3150183150185,,0,-1,1768787213.827118
1768787213834.9304,1416.8498168498168,,0,-1,1768787213.8349304
1768787213842.743,1419.047619047619,,0,-1,1768787213.842743
1768787213850.5554,1419.7802197802198,,0,-1,1768787213.8505554
1768787213858.368,1421.9780219780218,,0,-1,1768787213.858368
1768787213866.1804,1422.7106227106226,,0,-1,1768787213.8661804
1768787213873.993,1424.175824175824,,0,-1,1768787213.873993
1768787213881.8054,1426.3736263736262,,0,-1,1768787213.8818054
1768787213889.618,1424.175824175824,,0,-1,1768787213.889618
1768787213897.4304,1419.7802197802198,,0,-1,1768787213.8974304
1768787213905.243,1414.6520146520145,,0,-1,1768787213.905243
1768787213913.0554,1405.8608058608058,,0,-1,1768787213.9130554
1768787213920.868,1394.139194139194,,0,-1,1768787213.920868
1768787213928.6804,1383.8827838827838,,0,-1,1768787213.9286804
1768787213936.493,1374.3589743589744,,0,-1,1768787213.936493
1768787213944.3054,1364.102564102564,,0,-1,1768787213.9443054
1768787213952.118,1354.5787545787546,,0,-1,1768787213.952118
1768787213959.9304,1348.7179487179487,,0,-1,1768787213.9599304
1768787213967.743,1352.3809523809523,,0,-1,1768787213.967743
1768787213975.5554,1358.974358974359,,0,-1,1768787213.9755554
1768787213983.368,1358.241758241758,,0,-1,1768787213.983368
1768787213991.1804,1356.7765567765566,,0,-1,1768787213.9911804
1768787213998.993,1359.7069597069597,,0,-1,1768787213.998993
1768787214006.8054,1361.1721611721612,,0,-1,1768787214.0068054
1768787214014.618,1367.7655677655678,,0,-1,1768787214.014618
1768787214022.4304,1373.6263736263736,,0,-1,1768787214.0224304
1768787214030.243,1372.161172161172,,0,-1,1768787214.030243
1768787214038.0554,1368.4981684981683,,0,-1,1768787214.0380554
1768787214045.868,1366.3003663003662,,0,-1,1768787214.045868
1768787214053.6804,1365.5677655677655,,0,-1,1768787214.0536804
1768787214061.493,1360.4395604395604,,0,-1,1768787214.061493
1768787214069.3054,1355.311355311355,,0,-1,1768787214.0693054
1768787214077.118,1353.113553113553,,0,-1,1768787214.077118
1768787214084.9304,1346.5201465201465,,0,-1,1768787214.0849304
1768787214092.743,1341.3919413919414,,0,-1,1768787214.092743
1768787214100.5554,1343.5897435897434,,0,-1,1768787214.1005554
1768787214108.368,1345.054945054945,,0,-1,1768787214.108368
1768787214116.1804,1345.7875457875457,,0,-1,1768787214.1161804
1768787214123.993,1348.7179487179487,,0,-1,1768787214.123993
1768787214131.8054,1351.6483516483515,,0,-1,1768787214.1318054
1768787214139.618,1350.9157509157508,,0,-1,1768787214.139618
1768787214147.4304,1347.985347985348,,0,-1,1768787214.1474304
1768787214155.243,1349.4505494505493,,0,-1,1768787214.155243
1768787214163.0554,1350.18315018315,,0,-1,1768787214.1630554
1768787214170.868,1348.7179487179487,,0,-1,1768787214.170868
1768787214178.6804,1349.4505494505493,,0,-1,1768787214.1786804
1768787214186.493,1351.6483516483515,,0,-1,1768787214.186493
1768787214194.3054,1352.3809523809523,,0,-1,1768787214.1943054
1768787214202.118,1347.985347985348,,0,-1,1768787214.202118
1768787214209.9304,1340.6593406593406,,0,-1,1768787214.2099304
1768787214217.743,1334.7985347985348,,0,-1,1768787214.217743
1768787214225.5554,1330.4029304029302,,0,-1,1768787214.2255554
1768787214233.368,1328.937728937729,,0,-1,1768787214.233368
1768787214241.1804,1328.2051282051282,,0,-1,1768787214.2411804
1768787214248.993,1323.076923076923,,0,-1,1768787214.248993
1768787214256.8054,1319.4139194139193,,0,-1,1768787214.2568054
1768787214264.618,1320.14652014652,,0,-1,1768787214.264618
1768787214272.4304,1326.007326007326,,0,-1,1768787214.2724304
1768787214280.243,1335.5311355311355,,0,-1,1768787214.280243
1768787214288.0554,1347.985347985348,,0,-1,1768787214.2880554
1768787214295.868,1358.241758241758,,0,-1,1768787214.295868
1768787214303.6804,1371.428571428571,,0,-1,1768787214.3036804
1768787214311.493,1383.150183150183,,0,-1,1768787214.311493
1768787214319.3054,1397.069597069597,,0,-1,1768787214.3193054
1768787214327.118,1413.1868131868132,,0,-1,1768787214.327118
1768787214334.9304,1424.9084249084249,,0,-1,1768787214.3349304
1768787214342.743,1432.9670329670328,,0,-1,1768787214.342743
1768787214350.5554,1440.29304029304,,0,-1,1768787214.3505554
1768787214358.368,1444.688644688645,,0,-1,1768787214.358368
1768787214366.1804,1452.7472527472526,,0,-1,1768787214.3661804
1768787214373.993,1457.142857142857,,0,-1,1768787214.373993
1768787214381.8054,1457.875457875458,,0,-1,1768787214.3818054
1768787214389.618,1454.9450549450548,,0,-1,1768787214.389618
1768787214397.4304,1454.212454212454,,0,-1,1768787214.3974304
1768787214405.243,1454.212454212454,,0,-1,1768787214.405243
1768787214413.0554,1452.014652014652,,0,-1,1768787214.4130554
1768787214420.868,1452.7472527472526,,0,-1,1768787214.420868
1768787214428.6804,1452.7472527472526,,0,-1,1768787214.4286804
1768787214436.493,1453.479853479853,,0,-1,1768787214.436493
1768787214444.3054,1452.014652014652,,0,-1,1768787214.4443054
1768787214452.118,1449.084249084249,,0,-1,1768787214.452118
1768787214459.9304,1447.6190476190477,,0,-1,1768787214.4599304
1768787214467.743,1444.688644688645,,0,-1,1768787214.467743
1768787214475.5554,1443.956043956044,,0,-1,1768787214.4755554
1768787214483.368,1446.153846153846,,0,-1,1768787214.483368
1768787214491.1804,1452.7472527472526,,0,-1,1768787214.4911804
1768787214498.993,1459.3406593406592,,0,-1,1768787214.498993
1768787214506.8054,1464.4688644688645,,0,-1,1768787214.5068054
1768787214514.618,1469.5970695970695,,0,-1,1768787214.514618
1768787214522.4304,1475.4578754578754,,0,-1,1768787214.5224304
1768787214530.243,1480.5860805860805,,0,-1,1768787214.530243
1768787214538.0554,1482.7838827838827,,0,-1,1768787214.5380554
1768787214545.868,1486.4468864468863,,0,-1,1768787214.545868
1768787214553.6804,1485.7142857142856,,0,-1,1768787214.5536804
1768787214561.493,1484.2490842490845,,0,-1,1768787214.561493
1768787214569.3054,1479.8534798534797,,0,-1,1768787214.5693054
1768787214577.118,1473.992673992674,,0,-1,1768787214.577118
1768787214584.9304,1466.6666666666663,,0,-1,1768787214.5849304
1768787214592.743,1459.3406593406592,,0,-1,1768787214.592743
1768787214600.5554,1452.014652014652,,0,-1,1768787214.6005554
1768787214608.368,1446.8864468864467,,0,-1,1768787214.608368
1768787214616.1804,1443.956043956044,,0,-1,1768787214.6161804
1768787214623.993,1440.29304029304,,0,-1,1768787214.623993
1768787214631.8054,1435.164835164835,,0,-1,1768787214.6318054
1768787214639.618,1431.5018315018317,,0,-1,1768787214.639618
1768787214647.4304,1428.5714285714284,,0,-1,1768787214.6474304
1768787214655.243,1425.6410256410256,,0,-1,1768787214.655243
1768787214663.0554,1424.175824175824,,0,-1,1768787214.6630554
1768787214670.868,1421.9780219780218,,0,-1,1768787214.670868
1768787214678.6804,1419.7802197802198,,0,-1,1768787214.6786804
1768787214686.493,1415.3846153846152,,0,-1,1768787214.686493
1768787214694.3054,1410.2564102564102,,0,-1,1768787214.6943054
1768787214702.118,1404.3956043956043,,0,-1,1768787214.702118
1768787214709.9304,1398.5347985347985,,0,-1,1768787214.7099304
1768787214717.743,1397.069597069597,,0,-1,1768787214.717743
1768787214725.5554,1394.8717948717947,,0,-1,1768787214.7255554
1768787214733.368,1394.8717948717947,,0,-1,1768787214.733368
1768787214741.1804,1397.069597069597,,0,-1,1768787214.7411804
1768787214748.993,1401.4652014652013,,0,-1,1768787214.748993
1768787214756.8054,1406.5934065934066,,0,-1,1768787214.7568054
1768787214764.618,1410.2564102564102,,0,-1,1768787214.764618
1768787214772.4304,1411.7216117216117,,0,-1,1768787214.7724304
1768787214780.243,1408.058608058608,,0,-1,1768787214.780243
1768787214788.0554,1404.3956043956043,,0,-1,1768787214.7880554
1768787214795.868,1404.3956043956043,,0,-1,1768787214.795868
1768787214803.6804,1406.5934065934066,,0,-1,1768787214.8036804
1768787214811.493,1406.5934065934066,,0,-1,1768787214.811493
1768787214819.3054,1405.128205128205,,0,-1,1768787214.8193054
1768787214827.118,1400.7326007326003,,0,-1,1768787214.827118
1768787214834.9304,1398.5347985347985,,0,-1,1768787214.8349304
1768787214842.743,1396.3369963369962,,0,-1,1768787214.842743
1768787214850.5554,1400.0,,0,-1,1768787214.8505554
1768787214858.368,1400.7326007326003,,0,-1,1768787214.858368
1768787214866.1804,1399.2673992673992,,0,-1,1768787214.8661804
1768787214873.993,1396.3369963369962,,0,-1,1768787214.873993
1768787214881.8054,1388.278388278388,,0,-1,1768787214.8818054
1768787214889.618,1377.2893772893772,,0,-1,1768787214.889618
1768787214897.4304,1368.4981684981683,,0,-1,1768787214.8974304
1768787214905.243,1364.8351648351647,,0,-1,1768787214.905243
1768787214913.0554,1364.102564102564,,0,-1,1768787214.9130554
1768787214920.868,1366.3003663003662,,0,-1,1768787214.920868
1768787214928.6804,1372.8937728937728,,0,-1,1768787214.9286804
1768787214936.493,1377.2893772893772,,0,-1,1768787214.936493
1768787214944.3054,1376.5567765567764,,0,-1,1768787214.9443054
1768787214952.118,1370.6959706959706,,0,-1,1768787214.952118
1768787214959.9304,1367.032967032967,,0,-1,1768787214.9599304
1768787214967.743,1366.3003663003662,,0,-1,1768787214.967743
1768787214975.5554,1367.032967032967,,0,-1,1768787214.9755554
1768787214983.368,1367.032967032967,,0,-1,1768787214.983368
1768787214991.1804,1367.032967032967,,0,-1,1768787214.9911804
1768787214998.993,1364.8351648351647,,0,-1,1768787214.998993
1768787215006.8054,1359.7069597069597,,0,-1,1768787215.0068054
1768787215014.618,1353.8461538461538,,0,-1,1768787215.014618
1768787215022.4304,1348.7179487179487,,0,-1,1768787215.0224304
1768787215030.243,1345.054945054945,,0,-1,1768787215.030243
1768787215038.0554,1345.054945054945,,0,-1,1768787215.0380554
1768787215045.868,1348.7179487179487,,0,-1,1768787215.045868
1768787215053.6804,1353.8461538461538,,0,-1,1768787215.0536804
1768787215061.493,1357.5091575091574,,0,-1,1768787215.061493
1768787215069.3054,1358.974358974359,,0,-1,1768787215.0693054
1768787215077.118,1356.7765567765566,,0,-1,1768787215.077118
1768787215084.9304,1356.043956043956,,0,-1,1768787215.0849304
1768787215092.743,1357.5091575091574,,0,-1,1768787215.092743
1768787215100.5554,1356.7765567765566,,0,-1,1768787215.1005554
1768787215108.368,1353.8461538461538,,0,-1,1768787215.108368
1768787215116.1804,1350.18315018315,,0,-1,1768787215.1161804
1768787215123.993,1346.5201465201465,,0,-1,1768787215.123993
1768787215131.8054,1343.5897435897434,,0,-1,1768787215.1318054
1768787215139.618,1343.5897435897434,,0,-1,1768787215.139618
1768787215147.4304,1345.7875457875457,,0,-1,1768787215.1474304
1768787215155.243,1348.7179487179487,,0,-1,1768787215.155243
1768787215163.0554,1345.7875457875457,,0,-1,1768787215.1630554
1768787215170.868,1339.92673992674,,0,-1,1768787215.170868
1768787215178.6804,1332.6007326007325,,0,-1,1768787215.1786804
1768787215186.493,1327.4725274725274,,0,-1,1768787215.186493
1768787215194.3054,1325.2747252747251,,0,-1,1768787215.1943054
1768787215202.118,1325.2747252747251,,0,-1,1768787215.202118
1768787215209.9304,1327.4725274725274,,0,-1,1768787215.2099304
1768787215217.743,1328.2051282051282,,0,-1,1768787215.217743
1768787215225.5554,1330.4029304029302,,0,-1,1768787215.2255554
1768787215233.368,1331.135531135531,,0,-1,1768787215.233368
1768787215241.1804,1330.4029304029302,,0,-1,1768787215.2411804
1768787215248.993,1330.4029304029302,,0,-1,1768787215.248993
1768787215256.8054,1331.135531135531,,0,-1,1768787215.2568054
1768787215264.618,1331.8681318681315,,0,-1,1768787215.264618
1768787215272.4304,1334.7985347985348,,0,-1,1768787215.2724304
1768787215280.243,1337.7289377289376,,0,-1,1768787215.280243
1768787215288.0554,1340.6593406593406,,0,-1,1768787215.2880554
1768787215295.868,1343.5897435897434,,0,-1,1768787215.295868
1768787215303.6804,1350.9157509157508,,0,-1,1768787215.3036804
1768787215311.493,1361.904761904762,,0,-1,1768787215.311493
1768787215319.3054,1372.8937728937728,,0,-1,1768787215.3193054
1768787215327.118,1386.080586080586,,0,-1,1768787215.327118
1768787215334.9304,1401.4652014652013,,0,-1,1768787215.3349304
1768787215342.743,1421.9780219780218,,0,-1,1768787215.342743
1768787215350.5554,1442.4908424908424,,0,-1,1768787215.3505554
1768787215358.368,1460.805860805861,,0,-1,1768787215.358368
1768787215366.1804,1473.260073260073,,0,-1,1768787215.3661804
1768787215373.993,1480.5860805860805,,0,-1,1768787215.373993
1768787215381.8054,1487.9120879120878,,0,-1,1768787215.3818054
1768787215389.618,1495.2380952380952,,0,-1,1768787215.389618
1768787215397.4304,1500.3663003663005,,0,-1,1768787215.3974304
1768787215405.243,1504.7619047619046,,1,3,1768787215.405243
1768787215413.0554,1506.9597069597069,,1,3,1768787215.4130554
1768787215420.868,1504.7619047619046,,1,3,1768787215.420868
1768787215428.6804,1501.8315018315018,,1,3,1768787215.4286804
1768787215436.493,1500.3663003663005,,1,3,1768787215.436493
1768787215444.3054,1498.168498168498,,1,3,1768787215.4443054
1768787215452.118,1497.4358974358972,,1,3,1768787215.452118
1768787215459.9304,1496.7032967032967,,1,3,1768787215.4599304
1768787215467.743,1499.6336996336995,,1,3,1768787215.467743
1768787215475.5554,1502.5641025641023,,1,3,1768787215.4755554
1768787215483.368,1504.7619047619046,,1,3,1768787215.483368
1768787215491.1804,1507.6923076923076,,1,3,1768787215.4911804
1768787215498.993,1509.1575091575091,,1,3,1768787215.498993
1768787215506.8054,1509.1575091575091,,1,3,1768787215.5068054
1768787215514.618,1508.4249084249084,,1,3,1768787215.514618
1768787215522.4304,1507.6923076923076,,1,3,1768787215.5224304
1768787215530.243,1504.7619047619046,,1,3,1768787215.530243
1768787215538.0554,1498.168498168498,,1,3,1768787215.5380554
1768787215545.868,1486.4468864468863,,1,3,1768787215.545868
1768787215553.6804,1472.5274725274724,,1,3,1768787215.5536804
1768787215561.493,1457.875457875458,,1,3,1768787215.561493
1768787215569.3054,1446.8864468864467,,1,3,1768787215.5693054
1768787215577.118,1438.095238095238,,1,3,1768787215.577118
1768787215584.9304,1433.6996336996335,,1,3,1768787215.5849304
1768787215592.743,1434.4322344322345,,1,3,1768787215.592743
1768787215600.5554,1438.095238095238,,1,3,1768787215.6005554
1768787215608.368,1442.4908424908424,,1,3,1768787215.608368
1768787215616.1804,1444.688644688645,,1,3,1768787215.6161804
1768787215623.993,1446.153846153846,,1,3,1768787215.623993
1768787215631.8054,1443.956043956044,,1,3,1768787215.6318054
1768787215639.618,1443.956043956044,,1,3,1768787215.639618
1768787215647.4304,1440.29304029304,,1,3,1768787215.6474304
1768787215655.243,1435.8974358974358,,1,3,1768787215.655243
1768787215663.0554,1432.2344322344322,,1,3,1768787215.6630554
1768787215670.868,1429.3040293040292,,1,3,1768787215.670868
1768787215678.6804,1424.9084249084249,,1,3,1768787215.6786804
1768787215686.493,1424.175824175824,,1,3,1768787215.686493
1768787215694.3054,1427.106227106227,,1,3,1768787215.6943054
1768787215702.118,1430.03663003663,,1,3,1768787215.702118
1768787215709.9304,1431.5018315018317,,1,3,1768787215.7099304
1768787215717.743,1430.03663003663,,1,3,1768787215.717743
1768787215725.5554,1426.3736263736262,,1,3,1768787215.7255554
1768787215733.368,1422.7106227106226,,1,3,1768787215.733368
1768787215741.1804,1420.5128205128203,,1,3,1768787215.7411804
1768787215748.993,1417.5824175824175,,1,3,1768787215.748993
1768787215756.8054,1416.117216117216,,1,3,1768787215.7568054
1768787215764.618,1414.6520146520145,,1,3,1768787215.764618
1768787215772.4304,1410.989010989011,,1,3,1768787215.7724304
1768787215780.243,1405.128205128205,,1,3,1768787215.780243
1768787215788.0554,1401.4652014652013,,1,3,1768787215.7880554
1768787215795.868,1393.4065934065934,,1,3,1768787215.795868
1768787215803.6804,1386.080586080586,,1,3,1768787215.8036804
1768787215811.493,1378.7545787545787,,1,3,1768787215.811493
1768787215819.3054,1372.161172161172,,1,3,1768787215.8193054
1768787215827.118,1368.4981684981683,,1,3,1768787215.827118
1768787215834.9304,1368.4981684981683,,1,3,1768787215.8349304
1768787215842.743,1371.428571428571,,1,3,1768787215.842743
1768787215850.5554,1367.032967032967,,1,3,1768787215.8505554
1768787215858.368,1365.5677655677655,,1,3,1768787215.858368
1768787215866.1804,1360.4395604395604,,1,3,1768787215.8661804
1768787215873.993,1358.974358974359,,1,3,1768787215.873993
1768787215881.8054,1359.7069597069597,,1,3,1768787215.8818054
1768787215889.618,1362.6373626373625,,1,3,1768787215.889618
1768787215897.4304,1362.6373626373625,,1,3,1768787215.8974304
1768787215905.243,1361.1721611721612,,1,3,1768787215.905243
1768787215913.0554,1358.974358974359,,1,3,1768787215.9130554
1768787215920.868,1357.5091575091574,,1,3,1768787215.920868
1768787215928.6804,1356.7765567765566,,1,3,1768787215.9286804
1768787215936.493,1358.974358974359,,1,3,1768787215.936493
1768787215944.3054,1364.102564102564,,1,3,1768787215.9443054
1768787215952.118,1372.8937728937728,,1,3,1768787215.952118
1768787215959.9304,1383.150183150183,,1,3,1768787215.9599304
1768787215967.743,1389.0109890109889,,1,3,1768787215.967743
1768787215975.5554,1391.941391941392,,1,3,1768787215.9755554
1768787215983.368,1394.8717948717947,,1,3,1768787215.983368
1768787215991.1804,1396.3369963369962,,1,3,1768787215.9911804
1768787215998.993,1395.6043956043954,,1,3,1768787215.998993
1768787216006.8054,1386.8131868131868,,1,3,1768787216.0068054
1768787216014.618,1375.8241758241757,,1,3,1768787216.014618
1768787216022.4304,1367.7655677655678,,1,3,1768787216.0224304
1768787216030.243,1364.8351648351647,,1,3,1768787216.030243
1768787216038.0554,1362.6373626373625,,1,3,1768787216.0380554
1768787216045.868,1360.4395604395604,,1,3,1768787216.045868
1768787216053.6804,1361.1721611721612,,1,3,1768787216.0536804
1768787216061.493,1361.1721611721612,,1,3,1768787216.061493
1768787216069.3054,1358.974358974359,,1,3,1768787216.0693054
1768787216077.118,1356.043956043956,,1,3,1768787216.077118
1768787216084.9304,1353.8461538461538,,1,3,1768787216.0849304
1768787216092.743,1351.6483516483515,,1,3,1768787216.092743
1768787216100.5554,1348.7179487179487,,1,3,1768787216.1005554
1768787216108.368,1345.054945054945,,1,3,1768787216.108368
1768787216116.1804,1342.857142857143,,1,3,1768787216.1161804
1768787216123.993,1338.4615384615383,,1,3,1768787216.123993
1768787216131.8054,1331.8681318681315,,1,3,1768787216.1318054
1768787216139.618,1323.8095238095236,,1,3,1768787216.139618
1768787216147.4304,1318.6813186813183,,1,3,1768787216.1474304
1768787216155.243,1315.018315018315,,1,3,1768787216.155243
1768787216163.0554,1314.2857142857142,,1,3,1768787216.1630554
1768787216170.868,1313.5531135531137,,1,3,1768787216.170868
1768787216178.6804,1312.8205128205127,,1,3,1768787216.1786804
1768787216186.493,1314.2857142857142,,1,3,1768787216.186493
1768787216194.3054,1311.3553113553112,,1,3,1768787216.1943054
1768787216202.118,1310.6227106227104,,1,3,1768787216.202118
1768787216209.9304,1310.6227106227104,,1,3,1768787216.2099304
1768787216217.743,1308.4249084249084,,1,3,1768787216.217743
1768787216225.5554,1306.9597069597069,,1,3,1768787216.2255554
1768787216233.368,1309.89010989011,,1,3,1768787216.233368
1768787216241.1804,1313.5531135531137,,1,3,1768787216.2411804
1768787216248.993,1315.7509157509155,,1,3,1768787216.248993
1768787216256.8054,1316.4835164835165,,1,3,1768787216.2568054
1768787216264.618,1313.5531135531137,,1,3,1768787216.264618
1768787216272.4304,1315.018315018315,,1,3,1768787216.2724304
1768787216280.243,1320.14652014652,,1,3,1768787216.280243
1768787216288.0554,1323.8095238095236,,1,3,1768787216.2880554
1768787216295.868,1326.739926739927,,1,3,1768787216.295868
1768787216303.6804,1331.135531135531,,1,3,1768787216.3036804
1768787216311.493,1339.194139194139,,1,3,1768787216.311493
1768787216319.3054,1346.5201465201465,,1,3,1768787216.3193054
1768787216327.118,1353.113553113553,,1,3,1768787216.327118
1768787216334.9304,1360.4395604395604,,1,3,1768787216.3349304
1768787216342.743,1373.6263736263736,,1,3,1768787216.342743
1768787216350.5554,1384.6153846153843,,1,3,1768787216.3505554
1768787216358.368,1397.069597069597,,1,3,1768787216.358368
1768787216366.1804,1407.3260073260071,,1,3,1768787216.3661804
1768787216373.993,1413.1868131868132,,1,3,1768787216.373993
1768787216381.8054,1421.245421245421,,1,3,1768787216.3818054
1768787216389.618,1431.5018315018317,,1,3,1768787216.389618
1768787216397.4304,1438.8278388278388,,1,3,1768787216.3974304
1768787216405.243,1446.8864468864467,,1,3,1768787216.405243
1768787216413.0554,1454.212454212454,,1,3,1768787216.4130554
1768787216420.868,1457.875457875458,,1,3,1768787216.420868
1768787216428.6804,1460.805860805861,,1,3,1768787216.4286804
1768787216436.493,1464.4688644688645,,1,3,1768787216.436493
1768787216444.3054,1465.201465201465,,1,3,1768787216.4443054
1768787216452.118,1460.805860805861,,1,3,1768787216.452118
1768787216459.9304,1459.3406593406592,,1,3,1768787216.4599304
1768787216467.743,1452.7472527472526,,1,3,1768787216.467743
1768787216475.5554,1446.153846153846,,1,3,1768787216.4755554
1768787216483.368,1441.0256410256409,,1,3,1768787216.483368
1768787216491.1804,1441.7582417582416,,1,3,1768787216.4911804
1768787216498.993,1443.956043956044,,1,3,1768787216.498993
1768787216506.8054,1442.4908424908424,,1,3,1768787216.5068054
1768787216514.618,1443.956043956044,,1,3,1768787216.514618
1768787216522.4304,1446.153846153846,,1,3,1768787216.5224304
1768787216530.243,1441.7582417582416,,1,3,1768787216.530243
1768787216538.0554,1440.29304029304,,1,3,1768787216.5380554
1768787216545.868,1442.4908424908424,,1,3,1768787216.545868
1768787216553.6804,1442.4908424908424,,1,3,1768787216.5536804
1768787216561.493,1441.0256410256409,,1,3,1768787216.561493
1768787216569.3054,1441.7582417582416,,1,3,1768787216.5693054
1768787216577.118,1435.164835164835,,1,3,1768787216.577118
1768787216584.9304,1428.5714285714284,,1,3,1768787216.5849304
1768787216592.743,1426.3736263736262,,1,3,1768787216.592743
1768787216600.5554,1421.9780219780218,,1,3,1768787216.6005554
1768787216608.368,1417.5824175824175,,1,3,1768787216.608368
1768787216616.1804,1419.047619047619,,1,3,1768787216.6161804
1768787216623.993,1421.9780219780218,,1,3,1768787216.623993
1768787216631.8054,1422.7106227106226,,1,3,1768787216.6318054
1768787216639.618,1420.5128205128203,,1,3,1768787216.639618
1768787216647.4304,1421.9780219780218,,1,3,1768787216.6474304
1768787216655.243,1418.3150183150185,,1,3,1768787216.655243
1768787216663.0554,1413.9194139194135,,1,3,1768787216.6630554
1768787216670.868,1410.989010989011,,1,3,1768787216.670868
1768787216678.6804,1402.9304029304028,,1,3,1768787216.6786804
1768787216686.493,1394.139194139194,,1,3,1768787216.686493
1768787216694.3054,1382.4175824175825,,1,3,1768787216.6943054
1768787216702.1484,1375.091575091575,,1,3,1768787216.7021484
1768787216709.9304,1371.428571428571,,1,3,1768787216.7099304
1768787216717.743,1370.6959706959706,,1,3,1768787216.717743
1768787216725.5554,1370.6959706959706,,1,3,1768787216.7255554
1768787216733.368,1365.5677655677655,,1,3,1768787216.733368
1768787216741.1804,1368.4981684981683,,1,3,1768787216.7411804
1768787216748.993,1370.6959706959706,,1,3,1768787216.748993
1768787216756.8054,1370.6959706959706,,1,3,1768787216.7568054
1768787216764.618,1375.8241758241757,,1,3,1768787216.764618
1768787216772.4304,1376.5567765567764,,1,3,1768787216.7724304
1768787216780.243,1381.6849816849815,,1,3,1768787216.780243
1768787216788.0554,1380.2197802197802,,1,3,1768787216.7880554
1768787216795.868,1381.6849816849815,,1,3,1768787216.795868
1768787216803.6804,1375.8241758241757,,1,3,1768787216.8036804
1768787216811.493,1376.5567765567764,,1,3,1768787216.811493
1768787216819.3054,1375.091575091575,,1,3,1768787216.8193054
1768787216827.118,1379.4871794871794,,1,3,1768787216.827118
1768787216834.9304,1384.6153846153843,,1,3,1768787216.8349304
1768787216842.743,1385.3479853479853,,1,3,1768787216.842743
1768787216850.5554,1389.0109890109889,,1,3,1768787216.8505554
1768787216858.368,1387.5457875457876,,1,3,1768787216.858368
1768787216866.1804,1378.7545787545787,,1,3,1768787216.8661804
1768787216873.993,1372.161172161172,,1,3,1768787216.873993
1768787216881.8054,1360.4395604395604,,1,3,1768787216.8818054
1768787216889.618,1352.3809523809523,,1,3,1768787216.889618
1768787216897.4304,1349.4505494505493,,1,3,1768787216.8974304
1768787216905.243,1346.5201465201465,,1,3,1768787216.905243
1768787216913.0554,1350.9157509157508,,1,3,1768787216.9130554
1768787216920.868,1350.9157509157508,,1,3,1768787216.920868
1768787216928.6804,1353.113553113553,,1,3,1768787216.9286804
1768787216936.493,1358.241758241758,,1,3,1768787216.936493
1768787216944.3054,1358.241758241758,,1,3,1768787216.9443054
1768787216952.118,1359.7069597069597,,1,3,1768787216.952118
1768787216959.9304,1356.7765567765566,,1,3,1768787216.9599304
1768787216967.743,1350.9157509157508,,1,3,1768787216.967743
1768787216975.5554,1348.7179487179487,,1,3,1768787216.9755554
1768787216983.368,1338.4615384615383,,1,3,1768787216.983368
1768787216991.1804,1330.4029304029302,,1,3,1768787216.9911804
1768787216998.993,1326.007326007326,,1,3,1768787216.998993
1768787217006.8054,1319.4139194139193,,1,3,1768787217.0068054
1768787217014.618,1317.9487179487178,,1,3,1768787217.014618
1768787217022.4304,1320.8791208791208,,1,3,1768787217.0224304
1768787217030.243,1324.5421245421244,,1,3,1768787217.030243
1768787217038.0554,1333.3333333333333,,1,3,1768787217.0380554
1768787217045.868,1342.124542124542,,1,3,1768787217.045868
1768787217053.6804,1347.2527472527472,,1,3,1768787217.0536804
1768787217061.493,1353.8461538461538,,1,3,1768787217.061493
1768787217069.3054,1351.6483516483515,,1,3,1768787217.0693054
1768787217077.118,1352.3809523809523,,1,3,1768787217.077118
1768787217084.9304,1347.985347985348,,1,3,1768787217.0849304
1768787217092.743,1348.7179487179487,,1,3,1768787217.092743
1768787217100.5554,1345.7875457875457,,1,3,1768787217.1005554
1768787217108.368,1346.5201465201465,,1,3,1768787217.108368
1768787217116.1804,1342.124542124542,,1,3,1768787217.1161804
1768787217123.993,1338.4615384615383,,1,3,1768787217.123993
1768787217131.8054,1327.4725274725274,,1,3,1768787217.1318054
1768787217139.618,1320.8791208791208,,1,3,1768787217.139618
1768787217147.4304,1310.6227106227104,,1,3,1768787217.1474304
1768787217155.243,1306.9597069597069,,1,3,1768787217.155243
1768787217163.0554,1301.8315018315018,,1,3,1768787217.1630554
1768787217170.868,1301.098901098901,,1,3,1768787217.170868
1768787217178.6804,1304.7619047619046,,1,3,1768787217.1786804
1768787217186.493,1306.9597069597069,,1,3,1768787217.186493
1768787217194.3054,1313.5531135531137,,1,3,1768787217.1943054
1768787217202.118,1315.7509157509155,,1,3,1768787217.202118
1768787217209.9304,1323.8095238095236,,1,3,1768787217.2099304
1768787217217.743,1328.937728937729,,1,3,1768787217.217743
1768787217225.5554,1336.9963369963368,,1,3,1768787217.2255554
1768787217233.368,1338.4615384615383,,1,3,1768787217.233368
1768787217241.1804,1340.6593406593406,,1,3,1768787217.2411804
1768787217248.993,1342.857142857143,,1,3,1768787217.248993
1768787217256.8054,1342.857142857143,,1,3,1768787217.2568054
1768787217264.618,1345.7875457875457,,1,3,1768787217.264618
1768787217272.4304,1345.7875457875457,,1,3,1768787217.2724304
1768787217280.243,1352.3809523809523,,1,3,1768787217.280243
1768787217288.0554,1356.043956043956,,1,3,1768787217.2880554
1768787217295.868,1364.8351648351647,,1,3,1768787217.295868
1768787217303.6804,1370.6959706959706,,1,3,1768787217.3036804
1768787217311.493,1378.7545787545787,,1,3,1768787217.311493
1768787217319.3054,1381.6849816849815,,1,3,1768787217.3193054
1768787217327.118,1390.4761904761904,,1,3,1768787217.327118
1768787217334.9304,1390.4761904761904,,1,3,1768787217.3349304
1768787217342.743,1393.4065934065934,,1,3,1768787217.342743
1768787217350.5554,1389.7435897435896,,1,3,1768787217.3505554
1768787217358.368,1394.8717948717947,,1,3,1768787217.358368
1768787217366.1804,1391.941391941392,,1,3,1768787217.3661804
1768787217373.993,1389.7435897435896,,1,3,1768787217.373993
1768787217381.8054,1386.8131868131868,,1,3,1768787217.3818054
1768787217389.618,1391.941391941392,,1,3,1768787217.389618
1768787217397.4304,1397.069597069597,,1,3,1768787217.3974304
1768787217405.243,1408.058608058608,,1,3,1768787217.405243
1768787217413.0554,1413.9194139194135,,1,3,1768787217.4130554
1768787217420.868,1422.7106227106226,,1,3,1768787217.420868
1768787217428.6804,1423.4432234432234,,1,3,1768787217.4286804
1768787217436.493,1428.5714285714284,,1,3,1768787217.436493
1768787217444.3054,1430.03663003663,,1,3,1768787217.4443054
1768787217452.118,1435.8974358974358,,1,3,1768787217.452118
1768787217459.9304,1437.362637362637,,1,3,1768787217.4599304
1768787217467.743,1435.8974358974358,,1,3,1768787217.467743
1768787217475.5554,1439.5604395604394,,1,3,1768787217.4755554
1768787217483.368,1436.6300366300366,,1,3,1768787217.483368
1768787217491.1804,1437.362637362637,,1,3,1768787217.4911804
1768787217498.993,1430.7692307692307,,1,3,1768787217.498993
1768787217506.8054,1423.4432234432234,,1,3,1768787217.5068054
1768787217514.618,1416.8498168498168,,1,3,1768787217.514618
1768787217522.4304,1404.3956043956043,,1,3,1768787217.5224304
1768787217530.243,1396.3369963369962,,0,-1,1768787217.530243
1768787217538.0554,1385.3479853479853,,0,-1,1768787217.5380554
1768787217545.868,1383.8827838827838,,0,-1,1768787217.545868
1768787217553.6804,1378.7545787545787,,0,-1,1768787217.5536804
1768787217561.493,1379.4871794871794,,0,-1,1768787217.561493
1768787217569.3054,1378.021978021978,,0,-1,1768787217.5693054
1768787217577.118,1383.8827838827838,,0,-1,1768787217.577118
1768787217584.9304,1386.080586080586,,0,-1,1768787217.5849304
1768787217592.743,1392.6739926739926,,0,-1,1768787217.592743
1768787217600.5554,1397.069597069597,,0,-1,1768787217.6005554
1768787217608.368,1405.128205128205,,0,-1,1768787217.608368
1768787217616.1804,1407.3260073260071,,0,-1,1768787217.6161804
1768787217623.993,1413.1868131868132,,0,-1,1768787217.623993
1768787217631.8054,1412.4542124542124,,0,-1,1768787217.6318054
1768787217639.618,1410.989010989011,,0,-1,1768787217.639618
1768787217647.4304,1409.5238095238094,,0,-1,1768787217.6474304
1768787217655.243,1403.6630036630036,,0,-1,1768787217.655243
1768787217663.0554,1399.2673992673992,,0,-1,1768787217.6630554
1768787217670.868,1388.278388278388,,0,-1,1768787217.670868
1768787217678.6804,1383.150183150183,,0,-1,1768787217.6786804
1768787217686.493,1375.8241758241757,,0,-1,1768787217.686493
1768787217694.3054,1375.091575091575,,0,-1,1768787217.6943054
1768787217702.118,1372.161172161172,,0,-1,1768787217.702118
1768787217709.9304,1374.3589743589744,,0,-1,1768787217.7099304
1768787217717.743,1368.4981684981683,,0,-1,1768787217.717743
1768787217725.5554,1359.7069597069597,,0,-1,1768787217.7255554
1768787217733.368,1349.4505494505493,,0,-1,1768787217.733368
1768787217741.1804,1343.5897435897434,,0,-1,1768787217.7411804
1768787217748.993,1341.3919413919414,,0,-1,1768787217.748993
1768787217756.8054,1339.194139194139,,0,-1,1768787217.7568054
1768787217764.618,1342.124542124542,,0,-1,1768787217.764618
1768787217772.4304,1341.3919413919414,,0,-1,1768787217.7724304
1768787217780.243,1342.857142857143,,0,-1,1768787217.780243
1768787217788.0554,1339.194139194139,,0,-1,1768787217.7880554
1768787217795.868,1340.6593406593406,,0,-1,1768787217.795868
1768787217803.6804,1342.124542124542,,0,-1,1768787217.8036804
1768787217811.493,1345.054945054945,,0,-1,1768787217.811493
1768787217819.3054,1345.054945054945,,0,-1,1768787217.8193054
1768787217827.118,1349.4505494505493,,0,-1,1768787217.827118
1768787217834.9304,1345.7875457875457,,0,-1,1768787217.8349304
1768787217842.743,1344.3223443223442,,0,-1,1768787217.842743
1768787217850.5554,1345.054945054945,,0,-1,1768787217.8505554
1768787217858.368,1344.3223443223442,,0,-1,1768787217.858368
1768787217866.1804,1346.5201465201465,,0,-1,1768787217.8661804
1768787217873.993,1343.5897435897434,,0,-1,1768787217.873993
1768787217881.8054,1340.6593406593406,,0,-1,1768787217.8818054
1768787217889.618,1338.4615384615383,,0,-1,1768787217.889618
1768787217897.4304,1332.6007326007325,,0,-1,1768787217.8974304
1768787217905.243,1330.4029304029302,,0,-1,1768787217.905243
1768787217913.0554,1323.8095238095236,,0,-1,1768787217.9130554
1768787217920.868,1317.216117216117,,0,-1,1768787217.920868
1768787217928.6804,1311.3553113553112,,0,-1,1768787217.9286804
1768787217936.493,1306.9597069597069,,0,-1,1768787217.936493
1768787217944.3054,1306.9597069597069,,0,-1,1768787217.9443054
1768787217952.118,1308.4249084249084,,0,-1,1768787217.952118
1768787217959.9304,1306.9597069597069,,0,-1,1768787217.9599304
1768787217967.743,1306.9597069597069,,0,-1,1768787217.967743
1768787217975.5554,1304.0293040293038,,0,-1,1768787217.9755554
1768787217983.368,1307.6923076923076,,0,-1,1768787217.983368
1768787217991.1804,1309.1575091575091,,0,-1,1768787217.9911804
1768787217998.993,1317.9487179487178,,0,-1,1768787217.998993
1768787218006.8054,1320.8791208791208,,0,-1,1768787218.0068054
1768787218014.618,1327.4725274725274,,0,-1,1768787218.014618
1768787218022.4304,1327.4725274725274,,0,-1,1768787218.0224304
1768787218030.243,1326.007326007326,,0,-1,1768787218.030243
1768787218038.0554,1324.5421245421244,,0,-1,1768787218.0380554
1768787218045.868,1318.6813186813183,,0,-1,1768787218.045868
1768787218053.6804,1315.7509157509155,,0,-1,1768787218.0536804
1768787218061.493,1310.6227106227104,,0,-1,1768787218.061493
1768787218069.3054,1304.0293040293038,,0,-1,1768787218.0693054
1768787218077.118,1298.168498168498,,0,-1,1768787218.077118
1768787218084.9304,1293.040293040293,,0,-1,1768787218.0849304
1768787218092.743,1293.7728937728937,,0,-1,1768787218.092743
1768787218100.5554,1297.4358974358977,,0,-1,1768787218.1005554
1768787218108.368,1306.227106227106,,0,-1,1768787218.108368
1768787218116.1804,1312.087912087912,,0,-1,1768787218.1161804
1768787218123.993,1320.14652014652,,0,-1,1768787218.123993
1768787218131.8054,1324.5421245421244,,0,-1,1768787218.1318054
1768787218139.618,1326.007326007326,,0,-1,1768787218.139618
1768787218147.4304,1323.8095238095236,,0,-1,1768787218.1474304
1768787218155.243,1323.076923076923,,0,-1,1768787218.155243
1768787218163.0554,1318.6813186813183,,0,-1,1768787218.1630554
1768787218170.868,1316.4835164835165,,0,-1,1768787218.170868
1768787218178.6804,1310.6227106227104,,0,-1,1768787218.1786804
1768787218186.493,1311.3553113553112,,0,-1,1768787218.186493
1768787218194.3054,1310.6227106227104,,0,-1,1768787218.1943054
1768787218202.1484,1315.018315018315,,0,-1,1768787218.2021484
1768787218209.9304,1320.8791208791208,,0,-1,1768787218.2099304
1768787218217.743,1325.2747252747251,,0,-1,1768787218.217743
1768787218225.5554,1337.7289377289376,,0,-1,1768787218.2255554
1768787218233.368,1352.3809523809523,,0,-1,1768787218.233368
1768787218241.1804,1364.8351648351647,,0,-1,1768787218.2411804
1768787218248.993,1380.2197802197802,,0,-1,1768787218.248993
1768787218256.8054,1388.278388278388,,0,-1,1768787218.2568054
1768787218264.618,1396.3369963369962,,0,-1,1768787218.264618
1768787218272.4304,1407.3260073260071,,0,-1,1768787218.2724304
1768787218280.243,1412.4542124542124,,0,-1,1768787218.280243
1768787218288.0554,1416.8498168498168,,0,-1,1768787218.2880554
1768787218295.868,1420.5128205128203,,0,-1,1768787218.295868
1768787218303.6804,1420.5128205128203,,0,-1,1768787218.3036804
1768787218311.493,1418.3150183150185,,0,-1,1768787218.311493
1768787218319.3054,1419.047619047619,,0,-1,1768787218.3193054
1768787218327.118,1419.047619047619,,0,-1,1768787218.327118
1768787218334.9304,1419.7802197802198,,0,-1,1768787218.3349304
1768787218342.743,1424.9084249084249,,0,-1,1768787218.342743
1768787218350.5554,1432.2344322344322,,0,-1,1768787218.3505554
1768787218358.368,1439.5604395604394,,0,-1,1768787218.358368
1768787218366.1804,1440.29304029304,,0,-1,1768787218.3661804
1768787218373.993,1438.095238095238,,0,-1,1768787218.373993
1768787218381.8054,1437.362637362637,,0,-1,1768787218.3818054
1768787218389.618,1432.9670329670328,,0,-1,1768787218.389618
1768787218397.4304,1431.5018315018317,,0,-1,1768787218.3974304
1768787218405.243,1431.5018315018317,,0,-1,1768787218.405243
1768787218413.0554,1432.2344322344322,,0,-1,1768787218.4130554
1768787218420.868,1427.106227106227,,0,-1,1768787218.420868
1768787218428.6804,1422.7106227106226,,0,-1,1768787218.4286804
1768787218436.493,1415.3846153846152,,0,-1,1768787218.436493
1768787218444.3054,1405.128205128205,,0,-1,1768787218.4443054
1768787218452.118,1394.8717948717947,,0,-1,1768787218.452118
1768787218459.9304,1386.8131868131868,,0,-1,1768787218.4599304
1768787218467.743,1379.4871794871794,,0,-1,1768787218.467743
1768787218475.5554,1371.428571428571,,0,-1,1768787218.4755554
1768787218483.368,1362.6373626373625,,0,-1,1768787218.483368
1768787218491.1804,1356.7765567765566,,0,-1,1768787218.4911804
1768787218498.993,1354.5787545787546,,0,-1,1768787218.498993
1768787218506.8054,1353.8461538461538,,0,-1,1768787218.5068054
1768787218514.618,1353.113553113553,,0,-1,1768787218.514618
1768787218522.4304,1355.311355311355,,0,-1,1768787218.5224304
1768787218530.243,1356.043956043956,,0,-1,1768787218.530243
1768787218538.0554,1354.5787545787546,,0,-1,1768787218.5380554
1768787218545.868,1356.043956043956,,0,-1,1768787218.545868
1768787218553.6804,1361.904761904762,,0,-1,1768787218.5536804
1768787218561.493,1366.3003663003662,,0,-1,1768787218.561493
1768787218569.3054,1370.6959706959706,,0,-1,1768787218.5693054
1768787218577.118,1372.8937728937728,,0,-1,1768787218.577118
1768787218584.9304,1370.6959706959706,,0,-1,1768787218.5849304
1768787218592.743,1367.7655677655678,,0,-1,1768787218.592743
1768787218600.5554,1364.8351648351647,,0,-1,1768787218.6005554
1768787218608.368,1358.974358974359,,0,-1,1768787218.608368
1768787218616.1804,1351.6483516483515,,0,-1,1768787218.6161804
1768787218623.993,1351.6483516483515,,0,-1,1768787218.623993
1768787218631.8054,1352.3809523809523,,0,-1,1768787218.6318054
1768787218639.618,1352.3809523809523,,0,-1,1768787218.639618
1768787218647.4304,1354.5787545787546,,0,-1,1768787218.6474304
1768787218655.243,1352.3809523809523,,0,-1,1768787218.655243
1768787218663.0554,1345.054945054945,,0,-1,1768787218.6630554
1768787218670.868,1336.263736263736,,0,-1,1768787218.670868
1768787218678.6804,1327.4725274725274,,0,-1,1768787218.6786804
1768787218686.493,1321.6117216117216,,0,-1,1768787218.686493
1768787218694.3054,1321.6117216117216,,0,-1,1768787218.6943054
1768787218702.118,1326.007326007326,,0,-1,1768787218.702118
1768787218709.9304,1326.739926739927,,0,-1,1768787218.7099304
1768787218717.743,1326.739926739927,,0,-1,1768787218.717743
1768787218725.5554,1323.076923076923,,0,-1,1768787218.7255554
1768787218733.368,1315.018315018315,,0,-1,1768787218.733368
1768787218741.1804,1312.087912087912,,0,-1,1768787218.7411804
1768787218748.993,1305.4945054945051,,0,-1,1768787218.748993
1768787218756.8054,1307.6923076923076,,0,-1,1768787218.7568054
1768787218764.618,1312.8205128205127,,0,-1,1768787218.764618
1768787218772.4304,1317.9487179487178,,0,-1,1768787218.7724304
1768787218780.243,1323.8095238095236,,0,-1,1768787218.780243
1768787218788.0554,1333.3333333333333,,0,-1,1768787218.7880554
1768787218795.868,1339.92673992674,,0,-1,1768787218.795868
1768787218803.6804,1339.194139194139,,0,-1,1768787218.8036804
1768787218811.493,1338.4615384615383,,0,-1,1768787218.811493
1768787218819.3054,1339.194139194139,,0,-1,1768787218.8193054
1768787218827.118,1340.6593406593406,,0,-1,1768787218.827118
1768787218834.9304,1341.3919413919414,,0,-1,1768787218.8349304
1768787218842.743,1346.5201465201465,,0,-1,1768787218.842743
1768787218850.5554,1347.2527472527472,,0,-1,1768787218.8505554
1768787218858.368,1346.5201465201465,,0,-1,1768787218.858368
1768787218866.1804,1339.92673992674,,0,-1,1768787218.8661804
1768787218873.993,1334.065934065934,,0,-1,1768787218.873993
1768787218881.8054,1331.135531135531,,0,-1,1768787218.8818054
1768787218889.618,1328.937728937729,,0,-1,1768787218.889618
1768787218897.4304,1326.007326007326,,0,-1,1768787218.8974304
1768787218905.243,1328.937728937729,,0,-1,1768787218.905243
1768787218913.0554,1327.4725274725274,,0,-1,1768787218.9130554
1768787218920.868,1325.2747252747251,,0,-1,1768787218.920868
1768787218928.6804,1326.739926739927,,0,-1,1768787218.9286804
1768787218936.493,1323.8095238095236,,0,-1,1768787218.936493
1768787218944.3054,1319.4139194139193,,0,-1,1768787218.9443054
1768787218952.118,1316.4835164835165,,0,-1,1768787218.952118
1768787218959.9304,1312.087912087912,,0,-1,1768787218.9599304
1768787218967.743,1306.227106227106,,0,-1,1768787218.967743
1768787218975.5554,1302.5641025641023,,0,-1,1768787218.9755554
1768787218983.368,1298.9010989010987,,0,-1,1768787218.983368
1768787218991.1804,1293.7728937728937,,0,-1,1768787218.9911804
1768787218998.993,1292.3076923076922,,0,-1,1768787218.998993
1768787219006.8054,1285.7142857142856,,0,-1,1768787219.0068054
1768787219014.618,1285.7142857142856,,0,-1,1768787219.014618
1768787219022.4304,1281.3186813186812,,0,-1,1768787219.0224304
1768787219030.243,1278.3882783882782,,0,-1,1768787219.030243
1768787219038.0554,1280.5860805860805,,0,-1,1768787219.0380554
1768787219045.868,1279.8534798534797,,0,-1,1768787219.045868
1768787219053.6804,1282.051282051282,,0,-1,1768787219.0536804
1768787219061.493,1286.4468864468863,,0,-1,1768787219.061493
1768787219069.3054,1288.6446886446886,,0,-1,1768787219.0693054
1768787219077.118,1292.3076923076922,,0,-1,1768787219.077118
1768787219084.9304,1292.3076923076922,,0,-1,1768787219.0849304
1768787219092.743,1298.168498168498,,0,-1,1768787219.092743
1768787219100.5554,1298.9010989010987,,0,-1,1768787219.1005554
1768787219108.368,1299.6336996336995,,0,-1,1768787219.108368
1768787219116.1804,1295.2380952380952,,0,-1,1768787219.1161804
1768787219123.993,1285.7142857142856,,0,-1,1768787219.123993
1768787219131.8054,1276.190476190476,,0,-1,1768787219.1318054
1768787219139.618,1273.260073260073,,0,-1,1768787219.139618
1768787219147.4304,1276.923076923077,,0,-1,1768787219.1474304
1768787219155.243,1282.7838827838827,,0,-1,1768787219.155243
1768787219163.0554,1294.5054945054944,,0,-1,1768787219.1630554
1768787219170.868,1314.2857142857142,,0,-1,1768787219.170868
1768787219178.6804,1331.8681318681315,,0,-1,1768787219.1786804
1768787219186.493,1350.9157509157508,,0,-1,1768787219.186493
1768787219194.3054,1369.9633699633698,,0,-1,1768787219.1943054
1768787219202.118,1387.5457875457876,,0,-1,1768787219.202118
1768787219209.9304,1400.7326007326003,,0,-1,1768787219.2099304
1768787219217.743,1409.5238095238094,,0,-1,1768787219.217743
1768787219225.5554,1412.4542124542124,,0,-1,1768787219.2255554
1768787219233.368,1416.117216117216,,0,-1,1768787219.233368
1768787219241.1804,1417.5824175824175,,0,-1,1768787219.2411804
1768787219248.993,1416.117216117216,,0,-1,1768787219.248993
1768787219256.8054,1421.245421245421,,0,-1,1768787219.2568054
1768787219264.618,1421.245421245421,,0,-1,1768787219.264618
1768787219272.4304,1423.4432234432234,,0,-1,1768787219.2724304
1768787219280.243,1422.7106227106226,,0,-1,1768787219.280243
1768787219288.0554,1418.3150183150185,,0,-1,1768787219.2880554
1768787219295.868,1418.3150183150185,,0,-1,1768787219.295868
1768787219303.6804,1416.8498168498168,,0,-1,1768787219.3036804
1768787219311.493,1416.117216117216,,0,-1,1768787219.311493
1768787219319.3054,1416.117216117216,,0,-1,1768787219.3193054
1768787219327.118,1410.989010989011,,0,-1,1768787219.327118
1768787219334.9304,1410.989010989011,,0,-1,1768787219.3349304
1768787219342.743,1408.058608058608,,0,-1,1768787219.342743
1768787219350.5554,1408.058608058608,,0,-1,1768787219.3505554
1768787219358.368,1414.6520146520145,,0,-1,1768787219.358368
1768787219366.1804,1419.7802197802198,,0,-1,1768787219.3661804
1768787219373.993,1426.3736263736262,,0,-1,1768787219.373993
1768787219381.8054,1432.2344322344322,,0,-1,1768787219.3818054
1768787219389.618,1431.5018315018317,,0,-1,1768787219.389618
1768787219397.4304,1424.175824175824,,0,-1,1768787219.3974304
1768787219405.243,1421.9780219780218,,0,-1,1768787219.405243
1768787219413.0554,1418.3150183150185,,0,-1,1768787219.4130554
1768787219420.868,1412.4542124542124,,0,-1,1768787219.420868
1768787219428.6804,1410.2564102564102,,0,-1,1768787219.4286804
1768787219436.493,1410.2564102564102,,0,-1,1768787219.436493
1768787219444.3054,1408.7912087912086,,0,-1,1768787219.4443054
1768787219452.118,1410.989010989011,,0,-1,1768787219.452118
1768787219459.9304,1410.989010989011,,0,-1,1768787219.4599304
1768787219467.743,1409.5238095238094,,0,-1,1768787219.467743
1768787219475.5554,1409.5238095238094,,0,-1,1768787219.4755554
1768787219483.368,1408.7912087912086,,0,-1,1768787219.483368
1768787219491.1804,1403.6630036630036,,0,-1,1768787219.4911804
1768787219498.993,1402.197802197802,,0,-1,1768787219.498993
1768787219506.8054,1402.197802197802,,0,-1,1768787219.5068054
1768787219514.618,1399.2673992673992,,0,-1,1768787219.514618
1768787219522.4304,1391.941391941392,,0,-1,1768787219.5224304
1768787219530.243,1386.080586080586,,0,-1,1768787219.530243
1768787219538.0554,1375.091575091575,,0,-1,1768787219.5380554
1768787219545.868,1361.1721611721612,,0,-1,1768787219.545868
1768787219553.6804,1353.8461538461538,,0,-1,1768787219.5536804
1768787219561.493,1349.4505494505493,,0,-1,1768787219.561493
1768787219569.3054,1347.985347985348,,0,-1,1768787219.5693054
1768787219577.118,1345.054945054945,,0,-1,1768787219.577118
1768787219584.9304,1342.857142857143,,0,-1,1768787219.5849304
1768787219592.743,1343.5897435897434,,0,-1,1768787219.592743
1768787219600.5554,1346.5201465201465,,0,-1,1768787219.6005554
1768787219608.368,1349.4505494505493,,0,-1,1768787219.608368
1768787219616.1804,1356.043956043956,,0,-1,1768787219.6161804
1768787219623.993,1365.5677655677655,,0,-1,1768787219.623993
1768787219631.8054,1375.8241758241757,,0,-1,1768787219.6318054
1768787219639.618,1377.2893772893772,,0,-1,1768787219.639618
1768787219647.4304,1370.6959706959706,,0,-1,1768787219.6474304
1768787219655.243,1365.5677655677655,,0,-1,1768787219.655243
1768787219663.0554,1362.6373626373625,,0,-1,1768787219.6630554
1768787219670.868,1358.241758241758,,0,-1,1768787219.670868
1768787219678.6804,1354.5787545787546,,0,-1,1768787219.6786804
1768787219686.493,1353.8461538461538,,0,-1,1768787219.686493
1768787219694.3054,1350.18315018315,,0,-1,1768787219.6943054
1768787219702.118,1345.054945054945,,0,-1,1768787219.702118
1768787219709.9304,1336.263736263736,,0,-1,1768787219.7099304
1768787219717.743,1329.6703296703297,,0,-1,1768787219.717743
1768787219725.5554,1326.007326007326,,0,-1,1768787219.7255554
1768787219733.368,1323.8095238095236,,0,-1,1768787219.733368
1768787219741.1804,1323.8095238095236,,0,-1,1768787219.7411804
1768787219748.993,1318.6813186813183,,0,-1,1768787219.748993
1768787219756.8054,1314.2857142857142,,1,4,1768787219.7568054
1768787219764.618,1315.018315018315,,1,4,1768787219.764618
1768787219772.4304,1315.7509157509155,,1,4,1768787219.7724304
1768787219780.243,1317.9487179487178,,1,4,1768787219.780243
1768787219788.0554,1321.6117216117216,,1,4,1768787219.7880554
1768787219795.868,1325.2747252747251,,1,4,1768787219.795868
1768787219803.6804,1328.937728937729,,1,4,1768787219.8036804
1768787219811.493,1330.4029304029302,,1,4,1768787219.811493
1768787219819.3054,1332.6007326007325,,1,4,1768787219.8193054
1768787219827.118,1332.6007326007325,,1,4,1768787219.827118
1768787219834.9304,1330.4029304029302,,1,4,1768787219.8349304
1768787219842.743,1324.5421245421244,,1,4,1768787219.842743
1768787219850.5554,1317.9487179487178,,1,4,1768787219.8505554
1768787219858.368,1317.216117216117,,1,4,1768787219.858368
1768787219866.1804,1314.2857142857142,,1,4,1768787219.8661804
1768787219873.993,1311.3553113553112,,1,4,1768787219.873993
1768787219881.8054,1307.6923076923076,,1,4,1768787219.8818054
1768787219889.618,1304.7619047619046,,1,4,1768787219.889618
1768787219897.4304,1304.0293040293038,,1,4,1768787219.8974304
1768787219905.243,1306.227106227106,,1,4,1768787219.905243
1768787219913.0554,1309.1575091575091,,1,4,1768787219.9130554
1768787219920.868,1315.7509157509155,,1,4,1768787219.920868
1768787219928.6804,1326.007326007326,,1,4,1768787219.9286804
1768787219936.493,1334.7985347985348,,1,4,1768787219.936493
1768787219944.3054,1340.6593406593406,,1,4,1768787219.9443054
1768787219952.118,1341.3919413919414,,1,4,1768787219.952118
1768787219959.9304,1338.4615384615383,,1,4,1768787219.9599304
1768787219967.743,1332.6007326007325,,1,4,1768787219.967743
1768787219975.5554,1326.007326007326,,1,4,1768787219.9755554
1768787219983.368,1317.9487179487178,,1,4,1768787219.983368
1768787219991.1804,1308.4249084249084,,1,4,1768787219.9911804
1768787219998.993,1298.168498168498,,1,4,1768787219.998993
1768787220006.8054,1286.4468864468863,,1,4,1768787220.0068054
1768787220014.618,1277.6556776556777,,1,4,1768787220.014618
1768787220022.4304,1275.4578754578754,,1,4,1768787220.0224304
1768787220030.243,1273.992673992674,,1,4,1768787220.030243
1768787220038.0554,1273.260073260073,,1,4,1768787220.0380554
1768787220045.868,1273.992673992674,,1,4,1768787220.045868
1768787220053.6804,1281.3186813186812,,1,4,1768787220.0536804
1768787220061.493,1290.10989010989,,1,4,1768787220.061493
1768787220069.3054,1295.970695970696,,1,4,1768787220.0693054
1768787220077.118,1299.6336996336995,,1,4,1768787220.077118
1768787220084.9304,1302.5641025641023,,1,4,1768787220.0849304
1768787220092.743,1309.1575091575091,,1,4,1768787220.092743
1768787220100.5554,1316.4835164835165,,1,4,1768787220.1005554
1768787220108.368,1320.14652014652,,1,4,1768787220.108368
1768787220116.1804,1317.216117216117,,1,4,1768787220.1161804
1768787220123.993,1314.2857142857142,,1,4,1768787220.123993
1768787220131.8054,1313.5531135531137,,1,4,1768787220.1318054
1768787220139.618,1315.018315018315,,1,4,1768787220.139618
1768787220147.4304,1315.018315018315,,1,4,1768787220.1474304
1768787220155.243,1316.4835164835165,,1,4,1768787220.155243
1768787220163.0554,1320.14652014652,,1,4,1768787220.1630554
1768787220170.868,1326.739926739927,,1,4,1768787220.170868
1768787220178.6804,1335.5311355311355,,1,4,1768787220.1786804
1768787220186.493,1345.054945054945,,1,4,1768787220.186493
1768787220194.3054,1353.113553113553,,1,4,1768787220.1943054
1768787220202.118,1357.5091575091574,,1,4,1768787220.202118
1768787220209.9304,1363.3699633699632,,1,4,1768787220.2099304
1768787220217.743,1371.428571428571,,1,4,1768787220.217743
1768787220225.5554,1378.7545787545787,,1,4,1768787220.2255554
1768787220233.368,1383.8827838827838,,1,4,1768787220.233368
1768787220241.1804,1384.6153846153843,,1,4,1768787220.2411804
1768787220248.993,1386.8131868131868,,1,4,1768787220.248993
1768787220256.8054,1390.4761904761904,,1,4,1768787220.2568054
1768787220264.618,1397.069597069597,,1,4,1768787220.264618
1768787220272.4304,1403.6630036630036,,1,4,1768787220.2724304
1768787220280.243,1409.5238095238094,,1,4,1768787220.280243
1768787220288.0554,1411.7216117216117,,1,4,1768787220.2880554
1768787220295.868,1417.5824175824175,,1,4,1768787220.295868
1768787220303.6804,1421.9780219780218,,1,4,1768787220.3036804
1768787220311.493,1425.6410256410256,,1,4,1768787220.311493
1768787220319.3054,1424.9084249084249,,1,4,1768787220.3193054
1768787220327.118,1418.3150183150185,,1,4,1768787220.327118
1768787220334.9304,1414.6520146520145,,1,4,1768787220.3349304
1768787220342.743,1416.117216117216,,1,4,1768787220.342743
1768787220350.5554,1419.047619047619,,1,4,1768787220.3505554
1768787220358.368,1424.9084249084249,,1,4,1768787220.358368
1768787220366.1804,1429.3040293040292,,1,4,1768787220.3661804
1768787220373.993,1430.7692307692307,,1,4,1768787220.373993
1768787220381.8054,1432.2344322344322,,1,4,1768787220.3818054
1768787220389.618,1432.9670329670328,,1,4,1768787220.389618
1768787220397.4304,1434.4322344322345,,1,4,1768787220.3974304
1768787220405.243,1438.095238095238,,1,4,1768787220.405243
1768787220413.0554,1438.095238095238,,1,4,1768787220.4130554
1768787220420.868,1435.164835164835,,1,4,1768787220.420868
1768787220428.6804,1434.4322344322345,,1,4,1768787220.4286804
1768787220436.493,1432.9670329670328,,1,4,1768787220.436493
1768787220444.3054,1436.6300366300366,,1,4,1768787220.4443054
1768787220452.118,1440.29304029304,,1,4,1768787220.452118
1768787220459.9304,1441.7582417582416,,1,4,1768787220.4599304
1768787220467.743,1440.29304029304,,1,4,1768787220.467743
1768787220475.5554,1435.164835164835,,1,4,1768787220.4755554
1768787220483.368,1427.8388278388277,,1,4,1768787220.483368
1768787220491.1804,1419.047619047619,,1,4,1768787220.4911804
1768787220498.993,1408.7912087912086,,1,4,1768787220.498993
1768787220506.8054,1397.8021978021975,,1,4,1768787220.5068054
1768787220514.618,1389.7435897435896,,1,4,1768787220.514618
1768787220522.4304,1386.080586080586,,1,4,1768787220.5224304
