Shimmer_6815_Timestamp_Unix_CAL,Shimmer_6815_PPG_A13_CAL,Unnamed: 2,inhale,inhale_id,epoch_sec
1768944441225.0977,58.608058608058606,,0,-1,1768944441.2250977
1768944441232.9102,167.032967032967,,0,-1,1768944441.2329102
1768944441240.723,293.040293040293,,0,-1,1768944441.240723
1768944441248.5352,427.8388278388278,,0,-1,1768944441.2485352
1768944441256.3477,556.7765567765567,,0,-1,1768944441.2563477
1768944441264.1602,673.992673992674,,0,-1,1768944441.2641602
1768944441271.973,776.5567765567765,,0,-1,1768944441.271973
1768944441279.7852,863.7362637362637,,0,-1,1768944441.2797852
1768944441287.5977,939.1941391941392,,0,-1,1768944441.2875977
1768944441295.4102,1008.7912087912088,,0,-1,1768944441.2954102
1768944441303.223,1072.5274725274724,,0,-1,1768944441.303223
1768944441311.0352,1124.5421245421244,,0,-1,1768944441.3110352
1768944441318.8477,1167.032967032967,,0,-1,1768944441.3188477
1768944441326.6602,1200.7326007326008,,0,-1,1768944441.3266602
1768944441334.473,1225.6410256410256,,0,-1,1768944441.334473
1768944441342.2852,1241.0256410256409,,0,-1,1768944441.3422852
1768944441350.0977,1249.8168498168498,,0,-1,1768944441.3500977
1768944441357.9102,1258.6080586080586,,0,-1,1768944441.3579102
1768944441365.723,1263.003663003663,,0,-1,1768944441.365723
1768944441373.5352,1265.9340659340658,,0,-1,1768944441.3735352
1768944441381.3477,1267.3992673992673,,0,-1,1768944441.3813477
1768944441389.1602,1268.131868131868,,0,-1,1768944441.3891602
1768944441396.973,1269.5970695970695,,0,-1,1768944441.396973
1768944441404.7852,1268.131868131868,,0,-1,1768944441.4047852
1768944441412.5977,1266.6666666666663,,0,-1,1768944441.4125977
1768944441420.4102,1266.6666666666663,,0,-1,1768944441.4204102
1768944441428.223,1265.2014652014652,,0,-1,1768944441.428223
1768944441436.0352,1263.7362637362637,,0,-1,1768944441.4360352
1768944441443.8477,1261.5384615384614,,0,-1,1768944441.4438477
1768944441451.6602,1257.142857142857,,0,-1,1768944441.4516602
1768944441459.473,1254.9450549450548,,0,-1,1768944441.459473
1768944441467.2852,1254.212454212454,,0,-1,1768944441.4672852
1768944441475.0977,1252.7472527472526,,0,-1,1768944441.4750977
1768944441482.9102,1252.7472527472526,,0,-1,1768944441.4829102
1768944441490.723,1252.014652014652,,0,-1,1768944441.490723
1768944441498.5352,1248.3516483516482,,0,-1,1768944441.4985352
1768944441506.3477,1244.688644688645,,0,-1,1768944441.5063477
1768944441514.1602,1236.6300366300366,,0,-1,1768944441.5141602
1768944441521.973,1227.106227106227,,0,-1,1768944441.521973
1768944441529.7852,1219.047619047619,,0,-1,1768944441.5297852
1768944441537.5977,1208.7912087912086,,0,-1,1768944441.5375977
1768944441545.4102,1197.8021978021975,,0,-1,1768944441.5454102
1768944441553.223,1185.3479853479853,,0,-1,1768944441.553223
1768944441561.0352,1171.428571428571,,0,-1,1768944441.5610352
1768944441568.8477,1161.1721611721612,,0,-1,1768944441.5688477
1768944441576.6602,1150.18315018315,,0,-1,1768944441.5766602
1768944441584.473,1134.065934065934,,0,-1,1768944441.584473
1768944441592.2852,1115.018315018315,,0,-1,1768944441.5922852
1768944441600.0977,1093.040293040293,,0,-1,1768944441.6000977
1768944441607.9102,1078.3882783882784,,0,-1,1768944441.6079102
1768944441615.723,1070.3296703296703,,0,-1,1768944441.615723
1768944441623.5352,1065.2014652014652,,0,-1,1768944441.6235352
1768944441631.3477,1060.805860805861,,0,-1,1768944441.6313477
1768944441639.1602,1062.2710622710622,,0,-1,1768944441.6391602
1768944441646.973,1068.8644688644688,,0,-1,1768944441.646973
1768944441654.7852,1075.4578754578754,,0,-1,1768944441.6547852
1768944441662.5977,1077.6556776556777,,0,-1,1768944441.6625977
1768944441670.4102,1082.051282051282,,0,-1,1768944441.6704102
1768944441678.223,1090.10989010989,,0,-1,1768944441.678223
1768944441686.0352,1100.3663003663005,,0,-1,1768944441.6860352
1768944441693.8477,1109.89010989011,,0,-1,1768944441.6938477
1768944441701.6602,1125.2747252747251,,0,-1,1768944441.7016602
1768944441709.473,1136.2637362637363,,0,-1,1768944441.709473
1768944441717.2852,1150.18315018315,,0,-1,1768944441.7172852
1768944441725.0977,1164.102564102564,,0,-1,1768944441.7250977
1768944441732.9102,1174.3589743589744,,0,-1,1768944441.7329102
1768944441740.723,1188.278388278388,,0,-1,1768944441.740723
1768944441748.5352,1204.3956043956043,,0,-1,1768944441.7485352
1768944441756.3477,1222.7106227106226,,0,-1,1768944441.7563477
1768944441764.1602,1239.5604395604396,,0,-1,1768944441.7641602
1768944441771.973,1255.6776556776556,,0,-1,1768944441.771973
1768944441779.7852,1267.3992673992673,,0,-1,1768944441.7797852
1768944441787.5977,1279.8534798534797,,0,-1,1768944441.7875977
1768944441795.4102,1293.7728937728937,,0,-1,1768944441.7954102
1768944441803.223,1308.4249084249084,,0,-1,1768944441.803223
1768944441811.0352,1320.8791208791208,,0,-1,1768944441.8110352
1768944441818.8477,1336.263736263736,,0,-1,1768944441.8188477
1768944441826.6602,1347.2527472527472,,0,-1,1768944441.8266602
1768944441834.473,1356.043956043956,,0,-1,1768944441.834473
1768944441842.2852,1364.102564102564,,0,-1,1768944441.8422852
1768944441850.0977,1375.091575091575,,0,-1,1768944441.8500977
1768944441857.9102,1389.0109890109889,,0,-1,1768944441.8579102
1768944441865.723,1401.4652014652013,,0,-1,1768944441.865723
1768944441873.5352,1410.989010989011,,0,-1,1768944441.8735352
1768944441881.3477,1416.117216117216,,0,-1,1768944441.8813477
1768944441889.1602,1418.3150183150185,,0,-1,1768944441.8891602
1768944441896.973,1419.047619047619,,0,-1,1768944441.896973
1768944441904.7852,1414.6520146520145,,0,-1,1768944441.9047852
1768944441912.5977,1409.5238095238094,,0,-1,1768944441.9125977
1768944441920.4102,1404.3956043956043,,0,-1,1768944441.9204102
1768944441928.223,1401.4652014652013,,0,-1,1768944441.928223
1768944441936.0352,1396.3369963369962,,0,-1,1768944441.9360352
1768944441943.8477,1396.3369963369962,,0,-1,1768944441.9438477
1768944441951.6602,1400.7326007326003,,0,-1,1768944441.9516602
1768944441959.473,1402.9304029304028,,0,-1,1768944441.959473
1768944441967.2852,1412.4542124542124,,0,-1,1768944441.9672852
1768944441975.0977,1416.8498168498168,,0,-1,1768944441.9750977
1768944441982.9102,1419.7802197802198,,0,-1,1768944441.9829102
1768944441990.723,1415.3846153846152,,0,-1,1768944441.990723
1768944441998.5352,1410.989010989011,,0,-1,1768944441.9985352
1768944442006.3477,1399.2673992673992,,0,-1,1768944442.0063477
1768944442014.1602,1391.941391941392,,0,-1,1768944442.0141602
1768944442021.973,1380.952380952381,,0,-1,1768944442.021973
1768944442029.7852,1371.428571428571,,0,-1,1768944442.0297852
1768944442037.5977,1367.7655677655678,,0,-1,1768944442.0375977
1768944442045.4102,1363.3699633699632,,0,-1,1768944442.0454102
1768944442053.223,1366.3003663003662,,0,-1,1768944442.053223
1768944442061.0352,1368.4981684981683,,0,-1,1768944442.0610352
1768944442068.8477,1378.7545787545787,,0,-1,1768944442.0688477
1768944442076.6602,1383.8827838827838,,0,-1,1768944442.0766602
1768944442084.473,1394.139194139194,,0,-1,1768944442.084473
1768944442092.2852,1397.069597069597,,0,-1,1768944442.0922852
1768944442100.0977,1397.069597069597,,0,-1,1768944442.1000977
1768944442107.9102,1399.2673992673992,,0,-1,1768944442.1079102
1768944442115.723,1397.8021978021975,,0,-1,1768944442.115723
1768944442123.5352,1401.4652014652013,,0,-1,1768944442.1235352
1768944442131.3477,1400.7326007326003,,0,-1,1768944442.1313477
1768944442139.1602,1402.197802197802,,0,-1,1768944442.1391602
1768944442146.973,1402.9304029304028,,0,-1,1768944442.146973
1768944442154.7852,1404.3956043956043,,0,-1,1768944442.1547852
1768944442162.5977,1406.5934065934066,,0,-1,1768944442.1625977
1768944442170.4102,1406.5934065934066,,0,-1,1768944442.1704102
1768944442178.223,1405.128205128205,,0,-1,1768944442.178223
1768944442186.0352,1400.0,,0,-1,1768944442.1860352
1768944442193.8477,1398.5347985347985,,0,-1,1768944442.1938477
1768944442201.6602,1395.6043956043954,,0,-1,1768944442.2016602
1768944442209.473,1397.069597069597,,0,-1,1768944442.209473
1768944442217.2852,1399.2673992673992,,0,-1,1768944442.2172852
1768944442225.0977,1401.4652014652013,,0,-1,1768944442.2250977
1768944442232.9102,1399.2673992673992,,0,-1,1768944442.2329102
1768944442240.723,1399.2673992673992,,0,-1,1768944442.240723
1768944442248.5352,1398.5347985347985,,0,-1,1768944442.2485352
1768944442256.3477,1396.3369963369962,,0,-1,1768944442.2563477
1768944442264.1602,1390.4761904761904,,0,-1,1768944442.2641602
1768944442271.973,1389.0109890109889,,0,-1,1768944442.271973
1768944442279.7852,1385.3479853479853,,0,-1,1768944442.2797852
1768944442287.5977,1383.8827838827838,,0,-1,1768944442.2875977
1768944442295.4102,1375.8241758241757,,0,-1,1768944442.2954102
1768944442303.223,1372.8937728937728,,0,-1,1768944442.303223
1768944442311.0352,1368.4981684981683,,0,-1,1768944442.3110352
1768944442318.8477,1361.904761904762,,0,-1,1768944442.3188477
1768944442326.6602,1357.5091575091574,,0,-1,1768944442.3266602
1768944442334.473,1353.113553113553,,0,-1,1768944442.334473
1768944442342.2852,1356.7765567765566,,0,-1,1768944442.3422852
1768944442350.0977,1361.1721611721612,,0,-1,1768944442.3500977
1768944442357.9102,1362.6373626373625,,0,-1,1768944442.3579102
1768944442365.723,1367.7655677655678,,0,-1,1768944442.365723
1768944442373.5352,1369.9633699633698,,0,-1,1768944442.3735352
1768944442381.3477,1373.6263736263736,,0,-1,1768944442.3813477
1768944442389.1602,1377.2893772893772,,0,-1,1768944442.3891602
1768944442396.973,1372.8937728937728,,0,-1,1768944442.396973
1768944442404.7852,1367.032967032967,,0,-1,1768944442.4047852
1768944442412.5977,1357.5091575091574,,0,-1,1768944442.4125977
1768944442420.4102,1345.054945054945,,0,-1,1768944442.4204102
1768944442428.223,1336.263736263736,,0,-1,1768944442.428223
1768944442436.0352,1325.2747252747251,,0,-1,1768944442.4360352
1768944442443.8477,1318.6813186813183,,0,-1,1768944442.4438477
1768944442451.6602,1310.6227106227104,,0,-1,1768944442.4516602
1768944442459.473,1306.9597069597069,,0,-1,1768944442.459473
1768944442467.2852,1303.2967032967033,,0,-1,1768944442.4672852
1768944442475.0977,1301.098901098901,,0,-1,1768944442.4750977
1768944442482.9102,1298.168498168498,,0,-1,1768944442.4829102
1768944442490.723,1296.7032967032967,,0,-1,1768944442.490723
1768944442498.5352,1295.970695970696,,0,-1,1768944442.4985352
1768944442506.3477,1297.4358974358977,,0,-1,1768944442.5063477
1768944442514.1602,1301.098901098901,,0,-1,1768944442.5141602
1768944442521.973,1304.7619047619046,,0,-1,1768944442.521973
1768944442529.7852,1314.2857142857142,,0,-1,1768944442.5297852
1768944442537.5977,1328.2051282051282,,0,-1,1768944442.5375977
1768944442545.4102,1343.5897435897434,,0,-1,1768944442.5454102
1768944442553.223,1356.7765567765566,,0,-1,1768944442.553223
1768944442561.0352,1369.9633699633698,,0,-1,1768944442.5610352
1768944442568.8477,1382.4175824175825,,0,-1,1768944442.5688477
1768944442576.6602,1394.139194139194,,0,-1,1768944442.5766602
1768944442584.473,1402.197802197802,,0,-1,1768944442.584473
1768944442592.2852,1412.4542124542124,,0,-1,1768944442.5922852
1768944442600.0977,1419.7802197802198,,0,-1,1768944442.6000977
1768944442607.9102,1427.106227106227,,0,-1,1768944442.6079102
1768944442615.723,1430.03663003663,,0,-1,1768944442.615723
1768944442623.5352,1427.8388278388277,,0,-1,1768944442.6235352
1768944442631.3477,1426.3736263736262,,0,-1,1768944442.6313477
1768944442639.1602,1418.3150183150185,,0,-1,1768944442.6391602
1768944442646.973,1412.4542124542124,,0,-1,1768944442.646973
1768944442654.7852,1409.5238095238094,,0,-1,1768944442.6547852
1768944442662.5977,1403.6630036630036,,0,-1,1768944442.6625977
1768944442670.4102,1397.069597069597,,0,-1,1768944442.6704102
1768944442678.223,1397.8021978021975,,0,-1,1768944442.678223
1768944442686.0352,1396.3369963369962,,0,-1,1768944442.6860352
1768944442693.8477,1393.4065934065934,,0,-1,1768944442.6938477
1768944442701.6602,1390.4761904761904,,0,-1,1768944442.7016602
1768944442709.473,1386.080586080586,,0,-1,1768944442.709473
1768944442717.2852,1375.8241758241757,,0,-1,1768944442.7172852
1768944442725.0977,1367.032967032967,,0,-1,1768944442.7250977
1768944442732.9102,1358.974358974359,,0,-1,1768944442.7329102
1768944442740.723,1356.043956043956,,0,-1,1768944442.740723
1768944442748.5352,1358.241758241758,,0,-1,1768944442.7485352
1768944442756.3477,1359.7069597069597,,0,-1,1768944442.7563477
1768944442764.1602,1364.102564102564,,0,-1,1768944442.7641602
1768944442771.973,1362.6373626373625,,0,-1,1768944442.771973
1768944442779.7852,1364.102564102564,,0,-1,1768944442.7797852
1768944442787.5977,1364.102564102564,,0,-1,1768944442.7875977
1768944442795.4102,1361.1721611721612,,0,-1,1768944442.7954102
1768944442803.223,1358.974358974359,,0,-1,1768944442.803223
1768944442811.0352,1361.904761904762,,0,-1,1768944442.8110352
1768944442818.8477,1361.904761904762,,0,-1,1768944442.8188477
1768944442826.6602,1362.6373626373625,,0,-1,1768944442.8266602
1768944442834.473,1358.974358974359,,0,-1,1768944442.834473
1768944442842.2852,1358.241758241758,,0,-1,1768944442.8422852
1768944442850.0977,1354.5787545787546,,0,-1,1768944442.8500977
1768944442857.9102,1350.9157509157508,,0,-1,1768944442.8579102
1768944442865.723,1350.18315018315,,0,-1,1768944442.865723
1768944442873.5352,1351.6483516483515,,0,-1,1768944442.8735352
1768944442881.3477,1348.7179487179487,,0,-1,1768944442.8813477
1768944442889.1602,1346.5201465201465,,0,-1,1768944442.8891602
1768944442896.973,1346.5201465201465,,0,-1,1768944442.896973
1768944442904.7852,1345.7875457875457,,0,-1,1768944442.9047852
1768944442912.5977,1347.985347985348,,0,-1,1768944442.9125977
1768944442920.4102,1350.18315018315,,0,-1,1768944442.9204102
1768944442928.223,1352.3809523809523,,0,-1,1768944442.928223
1768944442936.0352,1353.8461538461538,,0,-1,1768944442.9360352
1768944442943.8477,1350.18315018315,,0,-1,1768944442.9438477
1768944442951.6602,1347.985347985348,,0,-1,1768944442.9516602
1768944442959.473,1340.6593406593406,,0,-1,1768944442.959473
1768944442967.2852,1338.4615384615383,,0,-1,1768944442.9672852
1768944442975.0977,1334.065934065934,,0,-1,1768944442.9750977
1768944442982.9102,1334.7985347985348,,0,-1,1768944442.9829102
1768944442990.723,1328.2051282051282,,0,-1,1768944442.990723
1768944442998.5352,1323.076923076923,,0,-1,1768944442.9985352
1768944443006.3477,1315.7509157509155,,0,-1,1768944443.0063477
1768944443014.1602,1304.7619047619046,,0,-1,1768944443.0141602
1768944443021.973,1295.2380952380952,,0,-1,1768944443.021973
1768944443029.7852,1279.120879120879,,0,-1,1768944443.0297852
1768944443037.5977,1263.7362637362637,,0,-1,1768944443.0375977
1768944443045.4102,1250.5494505494505,,0,-1,1768944443.0454102
1768944443053.223,1232.2344322344322,,0,-1,1768944443.053223
1768944443061.0352,1211.7216117216117,,0,-1,1768944443.0610352
1768944443068.8477,1192.6739926739926,,0,-1,1768944443.0688477
1768944443076.6602,1170.6959706959706,,0,-1,1768944443.0766602
1768944443084.473,1150.18315018315,,0,-1,1768944443.084473
1768944443092.2852,1129.6703296703297,,0,-1,1768944443.0922852
1768944443100.0977,1112.087912087912,,0,-1,1768944443.1000977
1768944443107.9102,1101.098901098901,,0,-1,1768944443.1079102
1768944443115.723,1090.8424908424909,,0,-1,1768944443.115723
1768944443123.5352,1083.5164835164835,,0,-1,1768944443.1235352
1768944443131.3477,1084.981684981685,,0,-1,1768944443.1313477
1768944443139.1602,1086.4468864468863,,0,-1,1768944443.1391602
1768944443146.973,1092.3076923076922,,0,-1,1768944443.146973
1768944443154.7852,1100.3663003663005,,0,-1,1768944443.1547852
1768944443162.5977,1102.5641025641023,,0,-1,1768944443.1625977
1768944443170.4102,1111.3553113553112,,0,-1,1768944443.1704102
1768944443178.223,1121.6117216117216,,0,-1,1768944443.178223
1768944443186.0352,1136.9963369963368,,0,-1,1768944443.1860352
1768944443193.8477,1147.985347985348,,0,-1,1768944443.1938477
1768944443201.6602,1158.974358974359,,0,-1,1768944443.2016602
1768944443209.473,1164.8351648351647,,0,-1,1768944443.209473
1768944443217.2852,1164.8351648351647,,0,-1,1768944443.2172852
1768944443225.0977,1164.8351648351647,,0,-1,1768944443.2250977
1768944443232.9102,1155.311355311355,,0,-1,1768944443.2329102
1768944443240.723,1139.92673992674,,0,-1,1768944443.240723
1768944443248.5352,1127.4725274725274,,0,-1,1768944443.2485352
1768944443256.3477,1113.5531135531137,,0,-1,1768944443.2563477
1768944443264.1602,1106.227106227106,,0,-1,1768944443.2641602
1768944443271.973,1098.168498168498,,0,-1,1768944443.271973
1768944443279.7852,1096.7032967032967,,0,-1,1768944443.2797852
1768944443287.5977,1101.8315018315018,,0,-1,1768944443.2875977
1768944443295.4102,1107.6923076923076,,0,-1,1768944443.2954102
1768944443303.223,1120.8791208791208,,0,-1,1768944443.303223
1768944443311.0352,1132.6007326007325,,0,-1,1768944443.3110352
1768944443318.8477,1147.985347985348,,0,-1,1768944443.3188477
1768944443326.6602,1159.7069597069597,,0,-1,1768944443.3266602
1768944443334.473,1165.5677655677655,,0,-1,1768944443.334473
1768944443342.2852,1174.3589743589744,,0,-1,1768944443.3422852
1768944443350.0977,1183.8827838827838,,0,-1,1768944443.3500977
1768944443357.9102,1198.5347985347985,,0,-1,1768944443.3579102
1768944443365.723,1216.117216117216,,0,-1,1768944443.365723
1768944443373.5352,1232.967032967033,,0,-1,1768944443.3735352
1768944443381.3477,1249.084249084249,,0,-1,1768944443.3813477
1768944443389.1602,1269.5970695970695,,0,-1,1768944443.3891602
1768944443396.973,1290.10989010989,,0,-1,1768944443.396973
1768944443404.7852,1315.018315018315,,0,-1,1768944443.4047852
1768944443412.5977,1335.5311355311355,,0,-1,1768944443.4125977
1768944443420.4102,1355.311355311355,,0,-1,1768944443.4204102
1768944443428.223,1375.091575091575,,0,-1,1768944443.428223
1768944443436.0352,1391.941391941392,,0,-1,1768944443.4360352
1768944443443.8477,1405.8608058608058,,0,-1,1768944443.4438477
1768944443451.6602,1416.117216117216,,0,-1,1768944443.4516602
1768944443459.473,1417.5824175824175,,0,-1,1768944443.459473
1768944443467.2852,1417.5824175824175,,0,-1,1768944443.4672852
1768944443475.0977,1408.7912087912086,,0,-1,1768944443.4750977
1768944443482.9102,1397.8021978021975,,0,-1,1768944443.4829102
1768944443490.723,1386.8131868131868,,0,-1,1768944443.490723
1768944443498.5352,1375.8241758241757,,0,-1,1768944443.4985352
1768944443506.3477,1361.904761904762,,0,-1,1768944443.5063477
1768944443514.1602,1353.8461538461538,,0,-1,1768944443.5141602
1768944443521.973,1343.5897435897434,,0,-1,1768944443.521973
1768944443529.7852,1333.3333333333333,,0,-1,1768944443.5297852
1768944443537.5977,1331.8681318681315,,0,-1,1768944443.5375977
1768944443545.4102,1333.3333333333333,,0,-1,1768944443.5454102
1768944443553.223,1336.263736263736,,0,-1,1768944443.553223
1768944443561.0352,1337.7289377289376,,0,-1,1768944443.5610352
1768944443568.8477,1343.5897435897434,,0,-1,1768944443.5688477
1768944443576.6602,1344.3223443223442,,0,-1,1768944443.5766602
1768944443584.473,1344.3223443223442,,0,-1,1768944443.584473
1768944443592.2852,1340.6593406593406,,0,-1,1768944443.5922852
1768944443600.0977,1336.9963369963368,,0,-1,1768944443.6000977
1768944443607.9102,1331.135531135531,,0,-1,1768944443.6079102
1768944443615.723,1327.4725274725274,,0,-1,1768944443.615723
1768944443623.5352,1323.076923076923,,0,-1,1768944443.6235352
1768944443631.3477,1316.4835164835165,,0,-1,1768944443.6313477
1768944443639.1602,1312.087912087912,,0,-1,1768944443.6391602
1768944443646.973,1306.9597069597069,,0,-1,1768944443.646973
1768944443654.7852,1306.9597069597069,,0,-1,1768944443.6547852
1768944443662.5977,1306.9597069597069,,0,-1,1768944443.6625977
1768944443670.4102,1303.2967032967033,,0,-1,1768944443.6704102
1768944443678.223,1303.2967032967033,,0,-1,1768944443.678223
1768944443686.0352,1299.6336996336995,,0,-1,1768944443.6860352
1768944443693.8477,1292.3076923076922,,0,-1,1768944443.6938477
1768944443701.6602,1287.9120879120878,,0,-1,1768944443.7016602
1768944443709.473,1283.5164835164835,,0,-1,1768944443.709473
1768944443717.2852,1273.260073260073,,0,-1,1768944443.7172852
1768944443725.0977,1265.2014652014652,,0,-1,1768944443.7250977
1768944443732.9102,1256.4102564102564,,0,-1,1768944443.7329102
1768944443740.723,1248.3516483516482,,0,-1,1768944443.740723
1768944443748.5352,1235.164835164835,,0,-1,1768944443.7485352
1768944443756.3477,1223.4432234432234,,0,-1,1768944443.7563477
1768944443764.1602,1214.6520146520145,,0,-1,1768944443.7641602
1768944443771.973,1203.6630036630036,,0,-1,1768944443.771973
1768944443779.7852,1192.6739926739926,,0,-1,1768944443.7797852
1768944443787.5977,1180.952380952381,,0,-1,1768944443.7875977
1768944443795.4102,1167.7655677655678,,0,-1,1768944443.7954102
1768944443803.223,1154.5787545787546,,0,-1,1768944443.803223
1768944443811.0352,1142.124542124542,,0,-1,1768944443.8110352
1768944443818.8477,1127.4725274725274,,0,-1,1768944443.8188477
1768944443826.6602,1120.8791208791208,,0,-1,1768944443.8266602
1768944443834.473,1118.6813186813183,,0,-1,1768944443.834473
1768944443842.2852,1115.7509157509155,,0,-1,1768944443.8422852
1768944443850.0977,1117.2161172161173,,0,-1,1768944443.8500977
1768944443857.9102,1119.4139194139193,,0,-1,1768944443.8579102
1768944443865.723,1121.6117216117216,,0,-1,1768944443.865723
1768944443873.5352,1123.076923076923,,0,-1,1768944443.8735352
1768944443881.3477,1125.2747252747251,,0,-1,1768944443.8813477
1768944443889.1602,1124.5421245421244,,0,-1,1768944443.8891602
1768944443896.973,1123.8095238095236,,0,-1,1768944443.896973
1768944443904.7852,1116.4835164835165,,0,-1,1768944443.9047852
1768944443912.5977,1106.227106227106,,0,-1,1768944443.9125977
1768944443920.4102,1097.4358974358977,,0,-1,1768944443.9204102
1768944443928.223,1082.7838827838827,,0,-1,1768944443.928223
1768944443936.0352,1068.131868131868,,0,-1,1768944443.9360352
1768944443943.8477,1055.6776556776556,,0,-1,1768944443.9438477
1768944443951.6602,1048.3516483516482,,0,-1,1768944443.9516602
1768944443959.473,1043.956043956044,,0,-1,1768944443.959473
1768944443967.2852,1043.2234432234432,,0,-1,1768944443.9672852
1768944443975.0977,1041.7582417582416,,0,-1,1768944443.9750977
1768944443982.9102,1043.2234432234432,,0,-1,1768944443.9829102
1768944443990.723,1044.688644688645,,0,-1,1768944443.990723
1768944443998.5352,1046.1538461538462,,0,-1,1768944443.9985352
1768944444006.3477,1049.8168498168498,,0,-1,1768944444.0063477
1768944444014.1602,1057.875457875458,,0,-1,1768944444.0141602
1768944444021.973,1062.2710622710622,,0,-1,1768944444.021973
1768944444029.7852,1065.9340659340658,,0,-1,1768944444.0297852
1768944444037.5977,1070.3296703296703,,0,-1,1768944444.0375977
1768944444045.4102,1082.051282051282,,0,-1,1768944444.0454102
1768944444053.223,1093.040293040293,,0,-1,1768944444.053223
1768944444061.0352,1106.227106227106,,0,-1,1768944444.0610352
1768944444068.8477,1117.9487179487178,,0,-1,1768944444.0688477
1768944444076.6602,1129.6703296703297,,0,-1,1768944444.0766602
1768944444084.473,1140.6593406593406,,0,-1,1768944444.084473
1768944444092.2852,1152.3809523809523,,0,-1,1768944444.0922852
1768944444100.0977,1162.6373626373625,,0,-1,1768944444.1000977
1768944444107.9102,1177.2893772893772,,0,-1,1768944444.1079102
1768944444115.723,1193.4065934065934,,0,-1,1768944444.115723
1768944444123.5352,1209.5238095238094,,0,-1,1768944444.1235352
1768944444131.3477,1224.9084249084249,,0,-1,1768944444.1313477
1768944444139.1602,1241.7582417582416,,0,-1,1768944444.1391602
1768944444146.973,1260.07326007326,,0,-1,1768944444.146973
1768944444154.7852,1281.3186813186812,,0,-1,1768944444.1547852
1768944444162.5977,1297.4358974358977,,0,-1,1768944444.1625977
1768944444170.4102,1317.216117216117,,0,-1,1768944444.1704102
1768944444178.223,1332.6007326007325,,0,-1,1768944444.178223
1768944444186.0352,1350.9157509157508,,0,-1,1768944444.1860352
1768944444193.8477,1364.102564102564,,0,-1,1768944444.1938477
1768944444201.6602,1380.2197802197802,,0,-1,1768944444.2016602
1768944444209.473,1392.6739926739926,,0,-1,1768944444.209473
1768944444217.2852,1404.3956043956043,,0,-1,1768944444.2172852
1768944444225.0977,1414.6520146520145,,0,-1,1768944444.2250977
1768944444232.9102,1424.9084249084249,,0,-1,1768944444.2329102
1768944444240.723,1432.2344322344322,,0,-1,1768944444.240723
1768944444248.5352,1433.6996336996335,,0,-1,1768944444.2485352
1768944444256.3477,1432.9670329670328,,0,-1,1768944444.2563477
1768944444264.1602,1433.6996336996335,,0,-1,1768944444.2641602
1768944444271.973,1434.4322344322345,,0,-1,1768944444.271973
1768944444279.7852,1437.362637362637,,0,-1,1768944444.2797852
1768944444287.5977,1439.5604395604394,,0,-1,1768944444.2875977
1768944444295.4102,1438.095238095238,,0,-1,1768944444.2954102
1768944444303.223,1430.03663003663,,0,-1,1768944444.303223
1768944444311.0352,1421.245421245421,,0,-1,1768944444.3110352
1768944444318.8477,1412.4542124542124,,0,-1,1768944444.3188477
1768944444326.6602,1408.058608058608,,0,-1,1768944444.3266602
1768944444334.473,1413.1868131868132,,0,-1,1768944444.334473
1768944444342.2852,1413.1868131868132,,0,-1,1768944444.3422852
1768944444350.0977,1418.3150183150185,,0,-1,1768944444.3500977
1768944444357.9102,1427.106227106227,,0,-1,1768944444.3579102
1768944444365.723,1431.5018315018317,,0,-1,1768944444.365723
1768944444373.5352,1438.8278388278388,,0,-1,1768944444.3735352
1768944444381.3477,1446.153846153846,,0,-1,1768944444.3813477
1768944444389.1602,1451.2820512820513,,0,-1,1768944444.3891602
1768944444396.973,1451.2820512820513,,0,-1,1768944444.396973
1768944444404.7852,1450.5494505494505,,0,-1,1768944444.4047852
1768944444412.5977,1449.084249084249,,0,-1,1768944444.4125977
1768944444420.4102,1446.153846153846,,0,-1,1768944444.4204102
1768944444428.223,1441.0256410256409,,0,-1,1768944444.428223
1768944444436.0352,1433.6996336996335,,0,-1,1768944444.4360352
1768944444443.8477,1422.7106227106226,,0,-1,1768944444.4438477
1768944444451.6602,1411.7216117216117,,0,-1,1768944444.4516602
1768944444459.473,1401.4652014652013,,0,-1,1768944444.459473
1768944444467.2852,1389.0109890109889,,0,-1,1768944444.4672852
1768944444475.0977,1381.6849816849815,,0,-1,1768944444.4750977
1768944444482.9102,1372.8937728937728,,0,-1,1768944444.4829102
1768944444490.723,1365.5677655677655,,0,-1,1768944444.490723
1768944444498.5352,1361.904761904762,,0,-1,1768944444.4985352
1768944444506.3477,1359.7069597069597,,0,-1,1768944444.5063477
1768944444514.1602,1361.904761904762,,0,-1,1768944444.5141602
1768944444521.973,1364.102564102564,,0,-1,1768944444.521973
1768944444529.7852,1364.8351648351647,,0,-1,1768944444.5297852
1768944444537.5977,1365.5677655677655,,0,-1,1768944444.5375977
1768944444545.4102,1370.6959706959706,,0,-1,1768944444.5454102
1768944444553.223,1369.9633699633698,,0,-1,1768944444.553223
1768944444561.0352,1364.8351648351647,,0,-1,1768944444.5610352
1768944444568.8477,1358.241758241758,,0,-1,1768944444.5688477
1768944444576.6602,1350.9157509157508,,0,-1,1768944444.5766602
1768944444584.473,1342.857142857143,,0,-1,1768944444.584473
1768944444592.2852,1334.065934065934,,0,-1,1768944444.5922852
1768944444600.0977,1326.007326007326,,0,-1,1768944444.6000977
1768944444607.9102,1321.6117216117216,,0,-1,1768944444.6079102
1768944444615.723,1315.7509157509155,,0,-1,1768944444.615723
1768944444623.5352,1310.6227106227104,,0,-1,1768944444.6235352
1768944444631.3477,1307.6923076923076,,0,-1,1768944444.6313477
1768944444639.1602,1310.6227106227104,,0,-1,1768944444.6391602
1768944444646.973,1314.2857142857142,,0,-1,1768944444.646973
1768944444654.7852,1317.216117216117,,0,-1,1768944444.6547852
1768944444662.5977,1322.3443223443223,,0,-1,1768944444.6625977
1768944444670.4102,1323.076923076923,,0,-1,1768944444.6704102
1768944444678.223,1326.007326007326,,0,-1,1768944444.678223
1768944444686.0352,1325.2747252747251,,0,-1,1768944444.6860352
1768944444693.8477,1323.8095238095236,,0,-1,1768944444.6938477
1768944444701.6602,1320.14652014652,,0,-1,1768944444.7016602
1768944444709.473,1312.8205128205127,,0,-1,1768944444.709473
1768944444717.2852,1306.9597069597069,,0,-1,1768944444.7172852
1768944444725.0977,1298.9010989010987,,0,-1,1768944444.7250977
1768944444732.9102,1293.7728937728937,,0,-1,1768944444.7329102
1768944444740.723,1287.9120879120878,,0,-1,1768944444.740723
1768944444748.5352,1282.051282051282,,0,-1,1768944444.7485352
1768944444756.3477,1277.6556776556777,,0,-1,1768944444.7563477
1768944444764.1602,1273.992673992674,,0,-1,1768944444.7641602
1768944444771.973,1272.5274725274724,,0,-1,1768944444.771973
1768944444779.7852,1269.5970695970695,,0,-1,1768944444.7797852
1768944444787.5977,1263.003663003663,,0,-1,1768944444.7875977
1768944444795.4102,1262.2710622710622,,0,-1,1768944444.7954102
1768944444803.223,1267.3992673992673,,0,-1,1768944444.803223
1768944444811.0352,1271.7948717948716,,0,-1,1768944444.8110352
1768944444818.8477,1276.923076923077,,0,-1,1768944444.8188477
1768944444826.6602,1282.051282051282,,0,-1,1768944444.8266602
1768944444834.473,1290.10989010989,,0,-1,1768944444.834473
1768944444842.2852,1295.2380952380952,,0,-1,1768944444.8422852
1768944444850.0977,1295.2380952380952,,0,-1,1768944444.8500977
1768944444857.9102,1293.040293040293,,0,-1,1768944444.8579102
1768944444865.723,1294.5054945054944,,0,-1,1768944444.865723
1768944444873.5352,1301.098901098901,,0,-1,1768944444.8735352
1768944444881.3477,1309.89010989011,,0,-1,1768944444.8813477
1768944444889.1602,1320.14652014652,,0,-1,1768944444.8891602
1768944444896.973,1331.135531135531,,0,-1,1768944444.896973
1768944444904.7852,1339.194139194139,,0,-1,1768944444.9047852
1768944444912.5977,1343.5897435897434,,0,-1,1768944444.9125977
1768944444920.4102,1350.9157509157508,,0,-1,1768944444.9204102
1768944444928.223,1356.7765567765566,,0,-1,1768944444.928223
1768944444936.0352,1362.6373626373625,,0,-1,1768944444.9360352
1768944444943.8477,1366.3003663003662,,0,-1,1768944444.9438477
1768944444951.6602,1368.4981684981683,,0,-1,1768944444.9516602
1768944444959.473,1373.6263736263736,,0,-1,1768944444.959473
1768944444967.2852,1380.2197802197802,,0,-1,1768944444.9672852
1768944444975.0977,1389.0109890109889,,0,-1,1768944444.9750977
1768944444982.9102,1397.8021978021975,,0,-1,1768944444.9829102
1768944444990.723,1407.3260073260071,,0,-1,1768944444.990723
1768944444998.5352,1414.6520146520145,,0,-1,1768944444.9985352
1768944445006.3477,1419.7802197802198,,0,-1,1768944445.0063477
1768944445014.1602,1420.5128205128203,,0,-1,1768944445.0141602
1768944445021.973,1418.3150183150185,,0,-1,1768944445.021973
1768944445029.7852,1416.8498168498168,,0,-1,1768944445.0297852
1768944445037.5977,1415.3846153846152,,0,-1,1768944445.0375977
1768944445045.4102,1409.5238095238094,,0,-1,1768944445.0454102
1768944445053.223,1408.7912087912086,,0,-1,1768944445.053223
1768944445061.0352,1408.058608058608,,0,-1,1768944445.0610352
1768944445068.8477,1413.1868131868132,,0,-1,1768944445.0688477
1768944445076.691,1418.3150183150185,,0,-1,1768944445.076691
1768944445084.473,1426.3736263736262,,0,-1,1768944445.084473
1768944445092.2852,1441.7582417582416,,0,-1,1768944445.0922852
1768944445100.0977,1458.6080586080584,,0,-1,1768944445.1000977
1768944445107.9102,1474.7252747252746,,0,-1,1768944445.1079102
1768944445115.723,1486.4468864468863,,0,-1,1768944445.115723
1768944445123.5352,1493.040293040293,,0,-1,1768944445.1235352
1768944445131.3477,1500.3663003663005,,0,-1,1768944445.1313477
1768944445139.1602,1508.4249084249084,,0,-1,1768944445.1391602
1768944445146.973,1519.4139194139193,,0,-1,1768944445.146973
1768944445154.7852,1529.6703296703297,,0,-1,1768944445.1547852
1768944445162.5977,1538.4615384615383,,0,-1,1768944445.1625977
1768944445170.4102,1543.5897435897434,,0,-1,1768944445.1704102
1768944445178.223,1539.194139194139,,0,-1,1768944445.178223
1768944445186.0352,1526.739926739927,,0,-1,1768944445.1860352
1768944445193.8477,1509.1575091575091,,0,-1,1768944445.1938477
1768944445201.6602,1490.8424908424906,,0,-1,1768944445.2016602
1768944445209.473,1471.7948717948716,,0,-1,1768944445.209473
1768944445217.2852,1455.6776556776556,,0,-1,1768944445.2172852
1768944445225.0977,1439.5604395604394,,0,-1,1768944445.2250977
1768944445232.9102,1424.9084249084249,,0,-1,1768944445.2329102
1768944445240.723,1410.2564102564102,,0,-1,1768944445.240723
1768944445248.5352,1397.069597069597,,0,-1,1768944445.2485352
1768944445256.3477,1383.8827838827838,,0,-1,1768944445.2563477
1768944445264.1602,1370.6959706959706,,0,-1,1768944445.2641602
1768944445271.973,1358.241758241758,,0,-1,1768944445.271973
1768944445279.7852,1347.2527472527472,,0,-1,1768944445.2797852
1768944445287.5977,1333.3333333333333,,0,-1,1768944445.2875977
1768944445295.4102,1320.14652014652,,0,-1,1768944445.2954102
1768944445303.223,1308.4249084249084,,0,-1,1768944445.303223
1768944445311.0352,1295.970695970696,,0,-1,1768944445.3110352
1768944445318.8477,1284.2490842490845,,0,-1,1768944445.3188477
1768944445326.6602,1271.062271062271,,0,-1,1768944445.3266602
1768944445334.473,1260.07326007326,,0,-1,1768944445.334473
1768944445342.2852,1254.212454212454,,0,-1,1768944445.3422852
1768944445350.0977,1249.8168498168498,,0,-1,1768944445.3500977
1768944445357.9102,1249.084249084249,,0,-1,1768944445.3579102
1768944445365.723,1252.014652014652,,0,-1,1768944445.365723
1768944445373.5352,1257.142857142857,,0,-1,1768944445.3735352
1768944445381.3477,1262.2710622710622,,0,-1,1768944445.3813477
1768944445389.1602,1269.5970695970695,,0,-1,1768944445.3891602
1768944445396.973,1277.6556776556777,,0,-1,1768944445.396973
1768944445404.7852,1284.2490842490845,,0,-1,1768944445.4047852
1768944445412.5977,1289.3772893772891,,0,-1,1768944445.4125977
1768944445420.4102,1295.2380952380952,,0,-1,1768944445.4204102
1768944445428.223,1300.3663003663005,,0,-1,1768944445.428223
1768944445436.0352,1311.3553113553112,,0,-1,1768944445.4360352
1768944445443.8477,1323.8095238095236,,0,-1,1768944445.4438477
1768944445451.6602,1330.4029304029302,,0,-1,1768944445.4516602
1768944445459.473,1338.4615384615383,,0,-1,1768944445.459473
1768944445467.2852,1337.7289377289376,,0,-1,1768944445.4672852
1768944445475.0977,1337.7289377289376,,0,-1,1768944445.4750977
1768944445482.9102,1339.92673992674,,0,-1,1768944445.4829102
1768944445490.723,1344.3223443223442,,0,-1,1768944445.490723
1768944445498.5352,1352.3809523809523,,0,-1,1768944445.4985352
1768944445506.3477,1361.1721611721612,,0,-1,1768944445.5063477
1768944445514.1602,1367.032967032967,,0,-1,1768944445.5141602
1768944445521.973,1368.4981684981683,,0,-1,1768944445.521973
1768944445529.7852,1366.3003663003662,,0,-1,1768944445.5297852
1768944445537.5977,1365.5677655677655,,0,-1,1768944445.5375977
1768944445545.4102,1368.4981684981683,,0,-1,1768944445.5454102
1768944445553.223,1373.6263736263736,,0,-1,1768944445.553223
1768944445561.0352,1376.5567765567764,,0,-1,1768944445.5610352
1768944445568.8477,1380.2197802197802,,0,-1,1768944445.5688477
1768944445576.6602,1387.5457875457876,,0,-1,1768944445.5766602
1768944445584.473,1391.2087912087911,,0,-1,1768944445.584473
1768944445592.2852,1398.5347985347985,,0,-1,1768944445.5922852
1768944445600.0977,1410.2564102564102,,0,-1,1768944445.6000977
1768944445607.9102,1421.245421245421,,0,-1,1768944445.6079102
1768944445615.723,1435.8974358974358,,0,-1,1768944445.615723
1768944445623.5352,1449.8168498168498,,0,-1,1768944445.6235352
1768944445631.3477,1464.4688644688645,,0,-1,1768944445.6313477
1768944445639.1602,1473.992673992674,,0,-1,1768944445.6391602
1768944445646.973,1480.5860805860805,,0,-1,1768944445.646973
1768944445654.7852,1484.2490842490845,,0,-1,1768944445.6547852
1768944445662.5977,1483.5164835164835,,0,-1,1768944445.6625977
1768944445670.4102,1487.9120879120878,,0,-1,1768944445.6704102
1768944445678.223,1492.3076923076922,,0,-1,1768944445.678223
1768944445686.0352,1492.3076923076922,,0,-1,1768944445.6860352
1768944445693.8477,1489.3772893772891,,0,-1,1768944445.6938477
1768944445701.6602,1486.4468864468863,,0,-1,1768944445.7016602
1768944445709.473,1484.2490842490845,,0,-1,1768944445.709473
1768944445717.2852,1484.2490842490845,,0,-1,1768944445.7172852
1768944445725.0977,1482.051282051282,,0,-1,1768944445.7250977
1768944445732.9102,1479.8534798534797,,0,-1,1768944445.7329102
1768944445740.723,1486.4468864468863,,0,-1,1768944445.740723
1768944445748.5352,1490.10989010989,,0,-1,1768944445.7485352
1768944445756.3477,1491.5750915750914,,0,-1,1768944445.7563477
1768944445764.1602,1492.3076923076922,,0,-1,1768944445.7641602
1768944445771.973,1492.3076923076922,,0,-1,1768944445.771973
1768944445779.7852,1497.4358974358972,,0,-1,1768944445.7797852
1768944445787.5977,1498.9010989010987,,0,-1,1768944445.7875977
1768944445795.4102,1497.4358974358972,,0,-1,1768944445.7954102
1768944445803.223,1494.5054945054944,,0,-1,1768944445.803223
1768944445811.0352,1493.7728937728937,,0,-1,1768944445.8110352
1768944445818.8477,1486.4468864468863,,0,-1,1768944445.8188477
1768944445826.6602,1480.5860805860805,,0,-1,1768944445.8266602
1768944445834.473,1470.3296703296703,,0,-1,1768944445.834473
1768944445842.2852,1464.4688644688645,,0,-1,1768944445.8422852
1768944445850.0977,1460.07326007326,,0,-1,1768944445.8500977
1768944445857.9102,1452.014652014652,,0,-1,1768944445.8579102
1768944445865.723,1445.4212454212454,,0,-1,1768944445.865723
1768944445873.5352,1439.5604395604394,,0,-1,1768944445.8735352
1768944445881.3477,1427.106227106227,,0,-1,1768944445.8813477
1768944445889.1602,1409.5238095238094,,0,-1,1768944445.8891602
1768944445896.973,1396.3369963369962,,0,-1,1768944445.896973
1768944445904.7852,1382.4175824175825,,0,-1,1768944445.9047852
1768944445912.5977,1375.8241758241757,,0,-1,1768944445.9125977
1768944445920.4102,1374.3589743589744,,0,-1,1768944445.9204102
1768944445928.223,1376.5567765567764,,0,-1,1768944445.928223
1768944445936.0352,1378.7545787545787,,0,-1,1768944445.9360352
1768944445943.8477,1378.7545787545787,,0,-1,1768944445.9438477
1768944445951.6602,1372.8937728937728,,0,-1,1768944445.9516602
1768944445959.473,1364.8351648351647,,0,-1,1768944445.959473
1768944445967.2852,1359.7069597069597,,0,-1,1768944445.9672852
1768944445975.0977,1358.974358974359,,0,-1,1768944445.9750977
1768944445982.9102,1358.241758241758,,0,-1,1768944445.9829102
1768944445990.723,1355.311355311355,,0,-1,1768944445.990723
1768944445998.5352,1350.18315018315,,0,-1,1768944445.9985352
1768944446006.3477,1348.7179487179487,,0,-1,1768944446.0063477
1768944446014.1602,1344.3223443223442,,0,-1,1768944446.0141602
1768944446021.973,1339.194139194139,,0,-1,1768944446.021973
1768944446029.7852,1334.7985347985348,,0,-1,1768944446.0297852
1768944446037.5977,1328.937728937729,,0,-1,1768944446.0375977
1768944446045.4102,1319.4139194139193,,0,-1,1768944446.0454102
1768944446053.223,1312.8205128205127,,0,-1,1768944446.053223
1768944446061.0352,1313.5531135531137,,0,-1,1768944446.0610352
1768944446068.8477,1315.7509157509155,,0,-1,1768944446.0688477
1768944446076.6602,1321.6117216117216,,0,-1,1768944446.0766602
1768944446084.473,1326.007326007326,,0,-1,1768944446.084473
1768944446092.2852,1330.4029304029302,,0,-1,1768944446.0922852
1768944446100.0977,1333.3333333333333,,0,-1,1768944446.1000977
1768944446107.9102,1335.5311355311355,,0,-1,1768944446.1079102
1768944446115.723,1331.135531135531,,0,-1,1768944446.115723
1768944446123.5352,1328.937728937729,,0,-1,1768944446.1235352
1768944446131.3477,1322.3443223443223,,0,-1,1768944446.1313477
1768944446139.1602,1315.018315018315,,0,-1,1768944446.1391602
1768944446146.973,1315.018315018315,,0,-1,1768944446.146973
1768944446154.7852,1321.6117216117216,,0,-1,1768944446.1547852
1768944446162.5977,1323.8095238095236,,0,-1,1768944446.1625977
1768944446170.4102,1328.2051282051282,,0,-1,1768944446.1704102
1768944446178.223,1327.4725274725274,,0,-1,1768944446.178223
1768944446186.0352,1328.937728937729,,0,-1,1768944446.1860352
1768944446193.8477,1328.2051282051282,,0,-1,1768944446.1938477
1768944446201.6602,1323.8095238095236,,0,-1,1768944446.2016602
1768944446209.473,1321.6117216117216,,0,-1,1768944446.209473
1768944446217.2852,1320.14652014652,,0,-1,1768944446.2172852
1768944446225.0977,1316.4835164835165,,0,-1,1768944446.2250977
1768944446232.9102,1309.1575091575091,,0,-1,1768944446.2329102
1768944446240.723,1306.227106227106,,0,-1,1768944446.240723
1768944446248.5352,1301.098901098901,,0,-1,1768944446.2485352
1768944446256.3477,1298.168498168498,,0,-1,1768944446.2563477
1768944446264.1602,1298.9010989010987,,0,-1,1768944446.2641602
1768944446271.973,1298.168498168498,,0,-1,1768944446.271973
1768944446279.7852,1297.4358974358977,,0,-1,1768944446.2797852
1768944446287.5977,1298.168498168498,,0,-1,1768944446.2875977
1768944446295.4102,1301.098901098901,,0,-1,1768944446.2954102
1768944446303.223,1312.8205128205127,,0,-1,1768944446.303223
1768944446311.0352,1325.2747252747251,,0,-1,1768944446.3110352
1768944446318.8477,1338.4615384615383,,0,-1,1768944446.3188477
1768944446326.6602,1353.113553113553,,0,-1,1768944446.3266602
1768944446334.473,1369.230769230769,,0,-1,1768944446.334473
1768944446342.2852,1383.150183150183,,0,-1,1768944446.3422852
1768944446350.0977,1394.8717948717947,,0,-1,1768944446.3500977
1768944446357.9102,1403.6630036630036,,0,-1,1768944446.3579102
1768944446365.723,1412.4542124542124,,0,-1,1768944446.365723
1768944446373.5352,1419.047619047619,,0,-1,1768944446.3735352
1768944446381.3477,1421.245421245421,,0,-1,1768944446.3813477
1768944446389.1602,1428.5714285714284,,0,-1,1768944446.3891602
1768944446396.973,1438.8278388278388,,0,-1,1768944446.396973
1768944446404.7852,1444.688644688645,,0,-1,1768944446.4047852
1768944446412.5977,1451.2820512820513,,0,-1,1768944446.4125977
1768944446420.4102,1451.2820512820513,,0,-1,1768944446.4204102
1768944446428.223,1456.4102564102564,,0,-1,1768944446.428223
1768944446436.0352,1457.875457875458,,0,-1,1768944446.4360352
1768944446443.8477,1460.07326007326,,0,-1,1768944446.4438477
1768944446451.6602,1465.201465201465,,0,-1,1768944446.4516602
1768944446459.473,1465.9340659340658,,0,-1,1768944446.459473
1768944446467.2852,1470.3296703296703,,0,-1,1768944446.4672852
1768944446475.0977,1473.992673992674,,0,-1,1768944446.4750977
1768944446482.9102,1476.923076923077,,0,-1,1768944446.4829102
1768944446490.723,1479.8534798534797,,0,-1,1768944446.490723
1768944446498.5352,1486.4468864468863,,0,-1,1768944446.4985352
1768944446506.3477,1495.970695970696,,0,-1,1768944446.5063477
1768944446514.1602,1501.098901098901,,0,-1,1768944446.5141602
1768944446521.973,1504.7619047619046,,0,-1,1768944446.521973
1768944446529.7852,1498.9010989010987,,0,-1,1768944446.5297852
1768944446537.5977,1491.5750915750914,,0,-1,1768944446.5375977
1768944446545.4102,1481.3186813186812,,0,-1,1768944446.5454102
1768944446553.223,1471.7948717948716,,0,-1,1768944446.553223
1768944446561.0352,1472.5274725274724,,0,-1,1768944446.5610352
1768944446568.8477,1469.5970695970695,,0,-1,1768944446.5688477
1768944446576.691,1467.3992673992673,,0,-1,1768944446.576691
1768944446584.473,1464.4688644688645,,0,-1,1768944446.584473
1768944446592.2852,1455.6776556776556,,0,-1,1768944446.5922852
1768944446600.0977,1452.014652014652,,0,-1,1768944446.6000977
1768944446607.9102,1445.4212454212454,,0,-1,1768944446.6079102
1768944446615.723,1443.2234432234432,,0,-1,1768944446.615723
1768944446623.5352,1440.29304029304,,0,-1,1768944446.6235352
1768944446631.3477,1440.29304029304,,0,-1,1768944446.6313477
1768944446639.1602,1446.153846153846,,0,-1,1768944446.6391602
1768944446646.973,1450.5494505494505,,0,-1,1768944446.646973
1768944446654.7852,1454.212454212454,,0,-1,1768944446.6547852
1768944446662.5977,1450.5494505494505,,0,-1,1768944446.6625977
1768944446670.4102,1446.8864468864467,,0,-1,1768944446.6704102
1768944446678.223,1445.4212454212454,,0,-1,1768944446.678223
1768944446686.0352,1441.0256410256409,,0,-1,1768944446.6860352
1768944446693.8477,1443.956043956044,,0,-1,1768944446.6938477
1768944446701.6602,1441.7582417582416,,0,-1,1768944446.7016602
1768944446709.473,1440.29304029304,,0,-1,1768944446.709473
1768944446717.2852,1441.7582417582416,,0,-1,1768944446.7172852
1768944446725.0977,1441.7582417582416,,0,-1,1768944446.7250977
1768944446732.9102,1436.6300366300366,,0,-1,1768944446.7329102
1768944446740.723,1436.6300366300366,,0,-1,1768944446.740723
1768944446748.5352,1431.5018315018317,,0,-1,1768944446.7485352
1768944446756.3477,1430.7692307692307,,0,-1,1768944446.7563477
1768944446764.1602,1427.8388278388277,,0,-1,1768944446.7641602
1768944446771.973,1424.9084249084249,,0,-1,1768944446.771973
1768944446779.7852,1424.175824175824,,0,-1,1768944446.7797852
1768944446787.5977,1418.3150183150185,,0,-1,1768944446.7875977
1768944446795.4102,1414.6520146520145,,0,-1,1768944446.7954102
1768944446803.223,1405.128205128205,,0,-1,1768944446.803223
1768944446811.0352,1397.069597069597,,0,-1,1768944446.8110352
1768944446818.8477,1387.5457875457876,,0,-1,1768944446.8188477
1768944446826.6602,1380.2197802197802,,0,-1,1768944446.8266602
1768944446834.473,1378.021978021978,,0,-1,1768944446.834473
1768944446842.2852,1372.8937728937728,,0,-1,1768944446.8422852
1768944446850.0977,1372.161172161172,,0,-1,1768944446.8500977
1768944446857.9102,1369.9633699633698,,0,-1,1768944446.8579102
1768944446865.723,1369.230769230769,,0,-1,1768944446.865723
1768944446873.5352,1364.102564102564,,0,-1,1768944446.8735352
1768944446881.3477,1361.904761904762,,0,-1,1768944446.8813477
1768944446889.1602,1358.974358974359,,0,-1,1768944446.8891602
1768944446896.973,1358.241758241758,,0,-1,1768944446.896973
1768944446904.7852,1350.9157509157508,,0,-1,1768944446.9047852
1768944446912.5977,1350.18315018315,,0,-1,1768944446.9125977
1768944446920.4102,1345.054945054945,,0,-1,1768944446.9204102
1768944446928.223,1345.7875457875457,,0,-1,1768944446.928223
1768944446936.0352,1346.5201465201465,,0,-1,1768944446.9360352
1768944446943.8477,1349.4505494505493,,0,-1,1768944446.9438477
1768944446951.6602,1351.6483516483515,,0,-1,1768944446.9516602
1768944446959.473,1350.9157509157508,,0,-1,1768944446.959473
1768944446967.2852,1355.311355311355,,0,-1,1768944446.9672852
1768944446975.0977,1359.7069597069597,,0,-1,1768944446.9750977
1768944446982.9102,1367.7655677655678,,0,-1,1768944446.9829102
1768944446990.723,1378.7545787545787,,0,-1,1768944446.990723
1768944446998.5352,1385.3479853479853,,0,-1,1768944446.9985352
1768944447006.3477,1395.6043956043954,,0,-1,1768944447.0063477
1768944447014.1602,1399.2673992673992,,0,-1,1768944447.0141602
1768944447021.973,1408.7912087912086,,0,-1,1768944447.021973
1768944447029.7852,1410.989010989011,,0,-1,1768944447.0297852
1768944447037.5977,1414.6520146520145,,0,-1,1768944447.0375977
1768944447045.4102,1419.047619047619,,0,-1,1768944447.0454102
1768944447053.223,1422.7106227106226,,0,-1,1768944447.053223
1768944447061.0352,1425.6410256410256,,0,-1,1768944447.0610352
1768944447068.8477,1425.6410256410256,,0,-1,1768944447.0688477
1768944447076.6602,1430.7692307692307,,0,-1,1768944447.0766602
1768944447084.473,1437.362637362637,,0,-1,1768944447.084473
1768944447092.2852,1452.014652014652,,0,-1,1768944447.0922852
1768944447100.0977,1459.3406593406592,,0,-1,1768944447.1000977
1768944447107.9102,1467.3992673992673,,0,-1,1768944447.1079102
1768944447115.723,1470.3296703296703,,0,-1,1768944447.115723
1768944447123.5352,1471.7948717948716,,0,-1,1768944447.1235352
1768944447131.3477,1473.260073260073,,0,-1,1768944447.1313477
1768944447139.1602,1473.992673992674,,0,-1,1768944447.1391602
1768944447146.973,1468.8644688644688,,0,-1,1768944447.146973
1768944447154.7852,1467.3992673992673,,0,-1,1768944447.1547852
1768944447162.5977,1460.07326007326,,0,-1,1768944447.1625977
1768944447170.4102,1456.4102564102564,,0,-1,1768944447.1704102
1768944447178.223,1454.9450549450548,,0,-1,1768944447.178223
1768944447186.0352,1452.7472527472526,,0,-1,1768944447.1860352
1768944447193.8477,1453.479853479853,,0,-1,1768944447.1938477
1768944447201.6602,1454.9450549450548,,0,-1,1768944447.2016602
1768944447209.473,1452.7472527472526,,0,-1,1768944447.209473
1768944447217.2852,1455.6776556776556,,0,-1,1768944447.2172852
1768944447225.0977,1453.479853479853,,0,-1,1768944447.2250977
1768944447232.9102,1456.4102564102564,,0,-1,1768944447.2329102
1768944447240.723,1456.4102564102564,,0,-1,1768944447.240723
1768944447248.5352,1458.6080586080584,,0,-1,1768944447.2485352
1768944447256.3477,1454.9450549450548,,0,-1,1768944447.2563477
1768944447264.1602,1449.084249084249,,0,-1,1768944447.2641602
1768944447271.973,1443.956043956044,,0,-1,1768944447.271973
1768944447279.7852,1437.362637362637,,0,-1,1768944447.2797852
1768944447287.5977,1438.095238095238,,0,-1,1768944447.2875977
1768944447295.4102,1434.4322344322345,,0,-1,1768944447.2954102
1768944447303.223,1434.4322344322345,,0,-1,1768944447.303223
1768944447311.0352,1430.03663003663,,0,-1,1768944447.3110352
1768944447318.8477,1428.5714285714284,,0,-1,1768944447.3188477
1768944447326.6602,1427.8388278388277,,0,-1,1768944447.3266602
1768944447334.473,1421.245421245421,,0,-1,1768944447.334473
1768944447342.2852,1418.3150183150185,,0,-1,1768944447.3422852
1768944447350.0977,1408.7912087912086,,0,-1,1768944447.3500977
1768944447357.9102,1401.4652014652013,,0,-1,1768944447.3579102
1768944447365.723,1391.2087912087911,,0,-1,1768944447.365723
1768944447373.5352,1378.021978021978,,0,-1,1768944447.3735352
1768944447381.3477,1370.6959706959706,,0,-1,1768944447.3813477
1768944447389.1602,1363.3699633699632,,0,-1,1768944447.3891602
1768944447396.973,1364.102564102564,,0,-1,1768944447.396973
1768944447404.7852,1361.1721611721612,,0,-1,1768944447.4047852
1768944447412.5977,1364.102564102564,,0,-1,1768944447.4125977
1768944447420.4102,1364.8351648351647,,0,-1,1768944447.4204102
1768944447428.223,1366.3003663003662,,0,-1,1768944447.428223
1768944447436.0352,1364.102564102564,,0,-1,1768944447.4360352
1768944447443.8477,1358.241758241758,,0,-1,1768944447.4438477
1768944447451.6602,1355.311355311355,,0,-1,1768944447.4516602
1768944447459.473,1350.9157509157508,,0,-1,1768944447.459473
1768944447467.2852,1357.5091575091574,,0,-1,1768944447.4672852
1768944447475.0977,1365.5677655677655,,0,-1,1768944447.4750977
1768944447482.9102,1379.4871794871794,,0,-1,1768944447.4829102
1768944447490.723,1387.5457875457876,,0,-1,1768944447.490723
1768944447498.5352,1395.6043956043954,,0,-1,1768944447.4985352
1768944447506.3477,1405.128205128205,,0,-1,1768944447.5063477
1768944447514.1602,1406.5934065934066,,0,-1,1768944447.5141602
1768944447521.973,1404.3956043956043,,0,-1,1768944447.521973
1768944447529.7852,1402.197802197802,,0,-1,1768944447.5297852
1768944447537.5977,1394.8717948717947,,0,-1,1768944447.5375977
1768944447545.4102,1385.3479853479853,,0,-1,1768944447.5454102
1768944447553.223,1375.091575091575,,0,-1,1768944447.553223
1768944447561.0352,1368.4981684981683,,0,-1,1768944447.5610352
1768944447568.8477,1361.904761904762,,0,-1,1768944447.5688477
1768944447576.6602,1360.4395604395604,,0,-1,1768944447.5766602
1768944447584.473,1354.5787545787546,,0,-1,1768944447.584473
1768944447592.2852,1351.6483516483515,,0,-1,1768944447.5922852
1768944447600.0977,1347.2527472527472,,0,-1,1768944447.6000977
1768944447607.9102,1345.054945054945,,0,-1,1768944447.6079102
1768944447615.723,1347.985347985348,,0,-1,1768944447.615723
1768944447623.5352,1350.18315018315,,0,-1,1768944447.6235352
1768944447631.3477,1351.6483516483515,,0,-1,1768944447.6313477
1768944447639.1602,1356.043956043956,,0,-1,1768944447.6391602
1768944447646.973,1361.904761904762,,0,-1,1768944447.646973
1768944447654.7852,1366.3003663003662,,0,-1,1768944447.6547852
1768944447662.5977,1374.3589743589744,,0,-1,1768944447.6625977
1768944447670.4102,1376.5567765567764,,0,-1,1768944447.6704102
1768944447678.223,1379.4871794871794,,0,-1,1768944447.678223
1768944447686.0352,1375.8241758241757,,0,-1,1768944447.6860352
1768944447693.8477,1379.4871794871794,,0,-1,1768944447.6938477
1768944447701.6602,1390.4761904761904,,0,-1,1768944447.7016602
1768944447709.473,1400.7326007326003,,0,-1,1768944447.709473
1768944447717.2852,1415.3846153846152,,0,-1,1768944447.7172852
1768944447725.0977,1426.3736263736262,,0,-1,1768944447.7250977
1768944447732.9102,1438.8278388278388,,0,-1,1768944447.7329102
1768944447740.723,1446.8864468864467,,0,-1,1768944447.740723
1768944447748.5352,1457.142857142857,,0,-1,1768944447.7485352
1768944447756.3477,1458.6080586080584,,0,-1,1768944447.7563477
1768944447764.1602,1468.131868131868,,0,-1,1768944447.7641602
1768944447771.973,1471.062271062271,,0,-1,1768944447.771973
1768944447779.7852,1473.992673992674,,0,-1,1768944447.7797852
1768944447787.5977,1473.260073260073,,0,-1,1768944447.7875977
1768944447795.4102,1468.131868131868,,0,-1,1768944447.7954102
1768944447803.223,1469.5970695970695,,0,-1,1768944447.803223
1768944447811.0352,1470.3296703296703,,0,-1,1768944447.8110352
1768944447818.8477,1471.062271062271,,0,-1,1768944447.8188477
1768944447826.6602,1476.923076923077,,0,-1,1768944447.8266602
1768944447834.473,1479.120879120879,,0,-1,1768944447.834473
1768944447842.2852,1481.3186813186812,,0,-1,1768944447.8422852
1768944447850.0977,1487.9120879120878,,0,-1,1768944447.8500977
1768944447857.9102,1493.7728937728937,,0,-1,1768944447.8579102
1768944447865.723,1500.3663003663005,,0,-1,1768944447.865723
1768944447873.5352,1498.168498168498,,0,-1,1768944447.8735352
1768944447881.3477,1497.4358974358972,,0,-1,1768944447.8813477
1768944447889.1602,1493.040293040293,,0,-1,1768944447.8891602
1768944447896.973,1486.4468864468863,,0,-1,1768944447.896973
1768944447904.7852,1478.3882783882782,,0,-1,1768944447.9047852
1768944447912.5977,1467.3992673992673,,0,-1,1768944447.9125977
1768944447920.4102,1460.07326007326,,0,-1,1768944447.9204102
1768944447928.223,1450.5494505494505,,0,-1,1768944447.928223
1768944447936.0352,1446.153846153846,,0,-1,1768944447.9360352
1768944447943.8477,1438.095238095238,,0,-1,1768944447.9438477
1768944447951.6602,1432.9670329670328,,0,-1,1768944447.9516602
1768944447959.473,1427.8388278388277,,0,-1,1768944447.959473
1768944447967.2852,1424.9084249084249,,0,-1,1768944447.9672852
1768944447975.0977,1423.4432234432234,,0,-1,1768944447.9750977
1768944447982.9102,1424.175824175824,,0,-1,1768944447.9829102
1768944447990.723,1427.8388278388277,,0,-1,1768944447.990723
1768944447998.5352,1427.8388278388277,,0,-1,1768944447.9985352
1768944448006.3477,1432.9670329670328,,0,-1,1768944448.0063477
1768944448014.1602,1439.5604395604394,,0,-1,1768944448.0141602
1768944448021.973,1443.2234432234432,,0,-1,1768944448.021973
1768944448029.7852,1445.4212454212454,,0,-1,1768944448.0297852
1768944448037.5977,1448.3516483516482,,0,-1,1768944448.0375977
1768944448045.4102,1441.7582417582416,,0,-1,1768944448.0454102
1768944448053.223,1432.9670329670328,,0,-1,1768944448.053223
1768944448061.0352,1423.4432234432234,,0,-1,1768944448.0610352
1768944448068.8477,1416.8498168498168,,0,-1,1768944448.0688477
1768944448076.6602,1416.117216117216,,0,-1,1768944448.0766602
1768944448084.473,1418.3150183150185,,0,-1,1768944448.084473
1768944448092.2852,1421.245421245421,,0,-1,1768944448.0922852
1768944448100.0977,1425.6410256410256,,0,-1,1768944448.1000977
1768944448107.9102,1428.5714285714284,,0,-1,1768944448.1079102
1768944448115.723,1432.2344322344322,,0,-1,1768944448.115723
1768944448123.5352,1435.164835164835,,0,-1,1768944448.1235352
1768944448131.3477,1435.164835164835,,0,-1,1768944448.1313477
1768944448139.1602,1437.362637362637,,0,-1,1768944448.1391602
1768944448146.973,1435.8974358974358,,0,-1,1768944448.146973
1768944448154.7852,1432.2344322344322,,0,-1,1768944448.1547852
1768944448162.5977,1430.7692307692307,,0,-1,1768944448.1625977
1768944448170.4102,1430.03663003663,,0,-1,1768944448.1704102
1768944448178.223,1432.2344322344322,,0,-1,1768944448.178223
1768944448186.0352,1426.3736263736262,,0,-1,1768944448.1860352
1768944448193.8477,1419.047619047619,,0,-1,1768944448.1938477
1768944448201.6602,1411.7216117216117,,0,-1,1768944448.2016602
1768944448209.473,1405.128205128205,,0,-1,1768944448.209473
1768944448217.2852,1402.9304029304028,,0,-1,1768944448.2172852
1768944448225.0977,1405.8608058608058,,0,-1,1768944448.2250977
1768944448232.9102,1405.128205128205,,0,-1,1768944448.2329102
1768944448240.723,1401.4652014652013,,1,0,1768944448.240723
1768944448248.5352,1401.4652014652013,,1,0,1768944448.2485352
1768944448256.3477,1394.8717948717947,,1,0,1768944448.2563477
1768944448264.1602,1389.7435897435896,,1,0,1768944448.2641602
1768944448271.973,1384.6153846153843,,1,0,1768944448.271973
1768944448279.7852,1380.2197802197802,,1,0,1768944448.2797852
1768944448287.5977,1376.5567765567764,,1,0,1768944448.2875977
1768944448295.4102,1372.161172161172,,1,0,1768944448.2954102
1768944448303.223,1370.6959706959706,,1,0,1768944448.303223
1768944448311.0352,1368.4981684981683,,1,0,1768944448.3110352
1768944448318.8477,1369.230769230769,,1,0,1768944448.3188477
1768944448326.6602,1367.7655677655678,,1,0,1768944448.3266602
1768944448334.473,1373.6263736263736,,1,0,1768944448.334473
1768944448342.2852,1380.952380952381,,1,0,1768944448.3422852
1768944448350.0977,1396.3369963369962,,1,0,1768944448.3500977
1768944448357.9102,1413.1868131868132,,1,0,1768944448.3579102
1768944448365.723,1428.5714285714284,,1,0,1768944448.365723
1768944448373.5352,1442.4908424908424,,1,0,1768944448.3735352
1768944448381.3477,1457.875457875458,,0,-1,1768944448.3813477
1768944448389.1602,1472.5274725274724,,0,-1,1768944448.3891602
1768944448396.973,1479.8534798534797,,0,-1,1768944448.396973
1768944448404.7852,1484.9816849816848,,0,-1,1768944448.4047852
1768944448412.5977,1488.6446886446886,,0,-1,1768944448.4125977
1768944448420.4102,1495.2380952380952,,0,-1,1768944448.4204102
1768944448428.223,1502.5641025641023,,0,-1,1768944448.428223
1768944448436.0352,1509.89010989011,,0,-1,1768944448.4360352
1768944448443.8477,1516.4835164835165,,0,-1,1768944448.4438477
1768944448451.6602,1523.0769230769229,,0,-1,1768944448.4516602
1768944448459.473,1531.135531135531,,0,-1,1768944448.459473
1768944448467.2852,1531.135531135531,,0,-1,1768944448.4672852
1768944448475.0977,1533.3333333333333,,0,-1,1768944448.4750977
1768944448482.9102,1531.135531135531,,0,-1,1768944448.4829102
1768944448490.723,1531.8681318681315,,0,-1,1768944448.490723
1768944448498.5352,1529.6703296703297,,0,-1,1768944448.4985352
1768944448506.3477,1520.8791208791208,,0,-1,1768944448.5063477
1768944448514.1602,1511.3553113553112,,0,-1,1768944448.5141602
1768944448521.973,1503.2967032967033,,0,-1,1768944448.521973
1768944448529.7852,1494.5054945054944,,0,-1,1768944448.5297852
1768944448537.5977,1486.4468864468863,,0,-1,1768944448.5375977
1768944448545.4102,1480.5860805860805,,0,-1,1768944448.5454102
1768944448553.223,1472.5274725274724,,0,-1,1768944448.553223
1768944448561.0352,1466.6666666666663,,0,-1,1768944448.5610352
1768944448568.8477,1457.875457875458,,0,-1,1768944448.5688477
1768944448576.6602,1447.6190476190477,,0,-1,1768944448.5766602
1768944448584.473,1445.4212454212454,,0,-1,1768944448.584473
1768944448592.2852,1446.153846153846,,0,-1,1768944448.5922852
1768944448600.0977,1444.688644688645,,0,-1,1768944448.6000977
1768944448607.9102,1444.688644688645,,0,-1,1768944448.6079102
1768944448615.723,1448.3516483516482,,0,-1,1768944448.615723
1768944448623.5352,1457.142857142857,,0,-1,1768944448.6235352
1768944448631.3477,1463.003663003663,,0,-1,1768944448.6313477
1768944448639.1602,1464.4688644688645,,0,-1,1768944448.6391602
1768944448646.973,1467.3992673992673,,0,-1,1768944448.646973
1768944448654.7852,1465.9340659340658,,0,-1,1768944448.6547852
1768944448662.5977,1466.6666666666663,,0,-1,1768944448.6625977
1768944448670.4102,1463.7362637362637,,0,-1,1768944448.6704102
1768944448678.223,1463.003663003663,,0,-1,1768944448.678223
1768944448686.0352,1462.2710622710622,,0,-1,1768944448.6860352
1768944448693.8477,1462.2710622710622,,0,-1,1768944448.6938477
1768944448701.6602,1461.5384615384614,,0,-1,1768944448.7016602
1768944448709.473,1453.479853479853,,0,-1,1768944448.709473
1768944448717.2852,1443.2234432234432,,0,-1,1768944448.7172852
1768944448725.0977,1435.8974358974358,,0,-1,1768944448.7250977
1768944448732.9102,1435.164835164835,,0,-1,1768944448.7329102
1768944448740.723,1438.095238095238,,0,-1,1768944448.740723
1768944448748.5352,1441.7582417582416,,0,-1,1768944448.7485352
1768944448756.3477,1443.2234432234432,,0,-1,1768944448.7563477
1768944448764.1602,1443.2234432234432,,0,-1,1768944448.7641602
1768944448771.973,1441.7582417582416,,0,-1,1768944448.771973
1768944448779.7852,1438.095238095238,,0,-1,1768944448.7797852
1768944448787.5977,1436.6300366300366,,0,-1,1768944448.7875977
1768944448795.4102,1435.8974358974358,,0,-1,1768944448.7954102
1768944448803.223,1435.8974358974358,,0,-1,1768944448.803223
1768944448811.0352,1437.362637362637,,0,-1,1768944448.8110352
1768944448818.8477,1438.095238095238,,0,-1,1768944448.8188477
1768944448826.6602,1439.5604395604394,,0,-1,1768944448.8266602
1768944448834.473,1440.29304029304,,0,-1,1768944448.834473
1768944448842.2852,1437.362637362637,,0,-1,1768944448.8422852
1768944448850.0977,1430.7692307692307,,0,-1,1768944448.8500977
1768944448857.9102,1424.175824175824,,0,-1,1768944448.8579102
1768944448865.723,1416.117216117216,,0,-1,1768944448.865723
1768944448873.5352,1408.7912087912086,,0,-1,1768944448.8735352
1768944448881.3477,1404.3956043956043,,0,-1,1768944448.8813477
1768944448889.1602,1400.7326007326003,,0,-1,1768944448.8891602
1768944448896.973,1397.069597069597,,0,-1,1768944448.896973
1768944448904.7852,1396.3369963369962,,0,-1,1768944448.9047852
1768944448912.5977,1393.4065934065934,,0,-1,1768944448.9125977
1768944448920.4102,1389.7435897435896,,0,-1,1768944448.9204102
1768944448928.223,1391.2087912087911,,0,-1,1768944448.928223
1768944448936.0352,1394.139194139194,,0,-1,1768944448.9360352
1768944448943.8477,1397.8021978021975,,0,-1,1768944448.9438477
1768944448951.6602,1401.4652014652013,,0,-1,1768944448.9516602
1768944448959.473,1407.3260073260071,,0,-1,1768944448.959473
1768944448967.2852,1415.3846153846152,,0,-1,1768944448.9672852
1768944448975.0977,1420.5128205128203,,0,-1,1768944448.9750977
1768944448982.9102,1425.6410256410256,,0,-1,1768944448.9829102
1768944448990.723,1435.164835164835,,0,-1,1768944448.990723
1768944448998.5352,1446.153846153846,,0,-1,1768944448.9985352
1768944449006.3477,1458.6080586080584,,0,-1,1768944449.0063477
1768944449014.1602,1471.7948717948716,,0,-1,1768944449.0141602
1768944449021.973,1484.9816849816848,,0,-1,1768944449.021973
1768944449029.7852,1499.6336996336995,,0,-1,1768944449.0297852
1768944449037.5977,1515.018315018315,,0,-1,1768944449.0375977
1768944449045.4102,1528.937728937729,,0,-1,1768944449.0454102
1768944449053.223,1541.3919413919414,,0,-1,1768944449.053223
1768944449061.0352,1553.113553113553,,0,-1,1768944449.0610352
1768944449068.8477,1563.3699633699632,,0,-1,1768944449.0688477
1768944449076.6602,1569.9633699633698,,0,-1,1768944449.0766602
1768944449084.473,1575.091575091575,,0,-1,1768944449.084473
1768944449092.2852,1578.021978021978,,0,-1,1768944449.0922852
1768944449100.0977,1579.4871794871794,,0,-1,1768944449.1000977
1768944449107.9102,1575.091575091575,,0,-1,1768944449.1079102
1768944449115.723,1569.230769230769,,0,-1,1768944449.115723
1768944449123.5352,1560.4395604395604,,0,-1,1768944449.1235352
1768944449131.3477,1550.9157509157508,,0,-1,1768944449.1313477
1768944449139.1602,1539.92673992674,,0,-1,1768944449.1391602
1768944449146.973,1530.4029304029302,,0,-1,1768944449.146973
1768944449154.7852,1523.8095238095236,,0,-1,1768944449.1547852
1768944449162.5977,1520.8791208791208,,0,-1,1768944449.1625977
1768944449170.4102,1519.4139194139193,,0,-1,1768944449.1704102
1768944449178.223,1517.9487179487178,,0,-1,1768944449.178223
1768944449186.0352,1514.2857142857142,,0,-1,1768944449.1860352
1768944449193.8477,1509.89010989011,,0,-1,1768944449.1938477
1768944449201.6602,1510.6227106227104,,0,-1,1768944449.2016602
1768944449209.473,1506.227106227106,,0,-1,1768944449.209473
1768944449217.2852,1498.168498168498,,0,-1,1768944449.2172852
1768944449225.0977,1490.10989010989,,0,-1,1768944449.2250977
1768944449232.9102,1484.2490842490845,,0,-1,1768944449.2329102
1768944449240.723,1480.5860805860805,,0,-1,1768944449.240723
1768944449248.5352,1480.5860805860805,,0,-1,1768944449.2485352
1768944449256.3477,1476.190476190476,,0,-1,1768944449.2563477
1768944449264.1602,1467.3992673992673,,0,-1,1768944449.2641602
1768944449271.973,1456.4102564102564,,0,-1,1768944449.271973
1768944449279.7852,1449.084249084249,,0,-1,1768944449.2797852
1768944449287.5977,1452.014652014652,,0,-1,1768944449.2875977
1768944449295.4102,1457.875457875458,,0,-1,1768944449.2954102
1768944449303.223,1464.4688644688645,,0,-1,1768944449.303223
1768944449311.0352,1472.5274725274724,,0,-1,1768944449.3110352
1768944449318.8477,1478.3882783882782,,0,-1,1768944449.3188477
1768944449326.6602,1479.8534798534797,,0,-1,1768944449.3266602
1768944449334.473,1480.5860805860805,,0,-1,1768944449.334473
1768944449342.2852,1478.3882783882782,,0,-1,1768944449.3422852
1768944449350.0977,1473.260073260073,,0,-1,1768944449.3500977
1768944449357.9102,1465.9340659340658,,0,-1,1768944449.3579102
1768944449365.723,1457.142857142857,,0,-1,1768944449.365723
1768944449373.5352,1448.3516483516482,,0,-1,1768944449.3735352
1768944449381.3477,1442.4908424908424,,0,-1,1768944449.3813477
1768944449389.1602,1439.5604395604394,,0,-1,1768944449.3891602
1768944449396.973,1440.29304029304,,0,-1,1768944449.396973
1768944449404.7852,1441.0256410256409,,0,-1,1768944449.4047852
1768944449412.5977,1440.29304029304,,0,-1,1768944449.4125977
1768944449420.4102,1438.095238095238,,0,-1,1768944449.4204102
1768944449428.223,1435.164835164835,,0,-1,1768944449.428223
1768944449436.0352,1434.4322344322345,,0,-1,1768944449.4360352
1768944449443.8477,1437.362637362637,,0,-1,1768944449.4438477
1768944449451.6602,1443.956043956044,,0,-1,1768944449.4516602
1768944449459.473,1449.084249084249,,0,-1,1768944449.459473
1768944449467.2852,1452.7472527472526,,0,-1,1768944449.4672852
1768944449475.0977,1456.4102564102564,,0,-1,1768944449.4750977
1768944449482.9102,1458.6080586080584,,0,-1,1768944449.4829102
1768944449490.723,1455.6776556776556,,0,-1,1768944449.490723
1768944449498.5352,1447.6190476190477,,0,-1,1768944449.4985352
1768944449506.3477,1437.362637362637,,0,-1,1768944449.5063477
1768944449514.1602,1425.6410256410256,,0,-1,1768944449.5141602
1768944449521.973,1416.8498168498168,,0,-1,1768944449.521973
1768944449529.7852,1410.2564102564102,,0,-1,1768944449.5297852
1768944449537.5977,1406.5934065934066,,0,-1,1768944449.5375977
1768944449545.4102,1404.3956043956043,,0,-1,1768944449.5454102
1768944449553.223,1402.9304029304028,,0,-1,1768944449.553223
1768944449561.0352,1402.9304029304028,,0,-1,1768944449.5610352
1768944449568.8477,1404.3956043956043,,0,-1,1768944449.5688477
1768944449576.6602,1407.3260073260071,,0,-1,1768944449.5766602
1768944449584.473,1411.7216117216117,,0,-1,1768944449.584473
1768944449592.2852,1415.3846153846152,,0,-1,1768944449.5922852
1768944449600.0977,1420.5128205128203,,0,-1,1768944449.6000977
1768944449607.9102,1428.5714285714284,,0,-1,1768944449.6079102
1768944449615.723,1438.8278388278388,,0,-1,1768944449.615723
1768944449623.5352,1452.7472527472526,,0,-1,1768944449.6235352
1768944449631.3477,1469.5970695970695,,0,-1,1768944449.6313477
1768944449639.1602,1491.5750915750914,,0,-1,1768944449.6391602
1768944449646.973,1514.2857142857142,,0,-1,1768944449.646973
1768944449654.7852,1531.135531135531,,0,-1,1768944449.6547852
1768944449662.5977,1541.3919413919414,,0,-1,1768944449.6625977
1768944449670.4102,1545.054945054945,,0,-1,1768944449.6704102
1768944449678.223,1547.2527472527472,,0,-1,1768944449.678223
1768944449686.0352,1547.985347985348,,0,-1,1768944449.6860352
1768944449693.8477,1553.113553113553,,0,-1,1768944449.6938477
1768944449701.6602,1559.7069597069597,,0,-1,1768944449.7016602
1768944449709.473,1567.032967032967,,0,-1,1768944449.709473
1768944449717.2852,1573.6263736263736,,0,-1,1768944449.7172852
1768944449725.0977,1578.7545787545787,,0,-1,1768944449.7250977
1768944449732.9102,1587.545787545787,,0,-1,1768944449.7329102
1768944449740.723,1597.069597069597,,0,-1,1768944449.740723
1768944449748.5352,1604.3956043956043,,0,-1,1768944449.7485352
1768944449756.3477,1608.7912087912086,,0,-1,1768944449.7563477
1768944449764.1602,1608.7912087912086,,0,-1,1768944449.7641602
1768944449771.973,1607.3260073260071,,0,-1,1768944449.771973
1768944449779.7852,1604.3956043956043,,0,-1,1768944449.7797852
1768944449787.5977,1602.9304029304028,,0,-1,1768944449.7875977
1768944449795.4102,1599.2673992673992,,0,-1,1768944449.7954102
1768944449803.223,1593.4065934065934,,0,-1,1768944449.803223
1768944449811.0352,1583.8827838827838,,0,-1,1768944449.8110352
1768944449818.8477,1573.6263736263736,,0,-1,1768944449.8188477
1768944449826.6602,1564.8351648351647,,0,-1,1768944449.8266602
1768944449834.473,1557.5091575091574,,0,-1,1768944449.834473
1768944449842.2852,1548.7179487179485,,0,-1,1768944449.8422852
1768944449850.0977,1534.7985347985348,,0,-1,1768944449.8500977
1768944449857.9102,1517.9487179487178,,0,-1,1768944449.8579102
1768944449865.723,1504.0293040293038,,0,-1,1768944449.865723
1768944449873.5352,1496.7032967032967,,0,-1,1768944449.8735352
1768944449881.3477,1490.8424908424906,,0,-1,1768944449.8813477
1768944449889.1602,1486.4468864468863,,0,-1,1768944449.8891602
1768944449896.973,1484.9816849816848,,0,-1,1768944449.896973
1768944449904.7852,1481.3186813186812,,0,-1,1768944449.9047852
1768944449912.5977,1476.923076923077,,0,-1,1768944449.9125977
1768944449920.4102,1471.7948717948716,,0,-1,1768944449.9204102
1768944449928.223,1473.992673992674,,0,-1,1768944449.928223
1768944449936.0352,1474.7252747252746,,0,-1,1768944449.9360352
1768944449943.8477,1479.120879120879,,0,-1,1768944449.9438477
1768944449951.6602,1482.7838827838827,,0,-1,1768944449.9516602
1768944449959.473,1484.9816849816848,,0,-1,1768944449.959473
1768944449967.2852,1489.3772893772891,,0,-1,1768944449.9672852
1768944449975.0977,1490.10989010989,,0,-1,1768944449.9750977
1768944449982.9102,1490.8424908424906,,0,-1,1768944449.9829102
1768944449990.723,1490.8424908424906,,0,-1,1768944449.990723
1768944449998.5352,1484.9816849816848,,0,-1,1768944449.9985352
1768944450006.3477,1475.4578754578754,,0,-1,1768944450.0063477
1768944450014.1602,1464.4688644688645,,0,-1,1768944450.0141602
1768944450021.973,1456.4102564102564,,0,-1,1768944450.021973
1768944450029.7852,1446.153846153846,,0,-1,1768944450.0297852
1768944450037.5977,1438.8278388278388,,0,-1,1768944450.0375977
1768944450045.4102,1435.8974358974358,,0,-1,1768944450.0454102
1768944450053.223,1438.095238095238,,0,-1,1768944450.053223
1768944450061.0352,1440.29304029304,,0,-1,1768944450.0610352
1768944450068.8477,1442.4908424908424,,0,-1,1768944450.0688477
1768944450076.6602,1445.4212454212454,,0,-1,1768944450.0766602
1768944450084.473,1451.2820512820513,,0,-1,1768944450.084473
1768944450092.2852,1452.7472527472526,,0,-1,1768944450.0922852
1768944450100.0977,1454.9450549450548,,0,-1,1768944450.1000977
1768944450107.9102,1454.9450549450548,,0,-1,1768944450.1079102
1768944450115.723,1450.5494505494505,,0,-1,1768944450.115723
1768944450123.5352,1443.956043956044,,0,-1,1768944450.1235352
1768944450131.3477,1441.0256410256409,,0,-1,1768944450.1313477
1768944450139.1602,1431.5018315018317,,0,-1,1768944450.1391602
1768944450146.973,1424.175824175824,,0,-1,1768944450.146973
1768944450154.7852,1415.3846153846152,,0,-1,1768944450.1547852
1768944450162.5977,1405.8608058608058,,0,-1,1768944450.1625977
1768944450170.4102,1402.9304029304028,,0,-1,1768944450.1704102
1768944450178.223,1403.6630036630036,,0,-1,1768944450.178223
1768944450186.0352,1405.8608058608058,,0,-1,1768944450.1860352
1768944450193.8477,1408.7912087912086,,0,-1,1768944450.1938477
1768944450201.6602,1416.117216117216,,0,-1,1768944450.2016602
1768944450209.473,1431.5018315018317,,0,-1,1768944450.209473
1768944450217.2852,1449.084249084249,,0,-1,1768944450.2172852
1768944450225.0977,1468.131868131868,,0,-1,1768944450.2250977
1768944450232.9102,1484.9816849816848,,0,-1,1768944450.2329102
1768944450240.723,1501.8315018315018,,0,-1,1768944450.240723
1768944450248.5352,1521.6117216117216,,0,-1,1768944450.2485352
1768944450256.3477,1539.194139194139,,0,-1,1768944450.2563477
1768944450264.1602,1561.9047619047617,,0,-1,1768944450.2641602
1768944450271.973,1579.4871794871794,,0,-1,1768944450.271973
1768944450279.7852,1595.6043956043954,,0,-1,1768944450.2797852
1768944450287.5977,1608.7912087912086,,0,-1,1768944450.2875977
1768944450295.4102,1618.3150183150185,,0,-1,1768944450.2954102
1768944450303.223,1622.7106227106226,,0,-1,1768944450.303223
1768944450311.0352,1624.9084249084249,,0,-1,1768944450.3110352
1768944450318.8477,1621.9780219780218,,0,-1,1768944450.3188477
1768944450326.6602,1622.7106227106226,,0,-1,1768944450.3266602
1768944450334.473,1624.175824175824,,0,-1,1768944450.334473
1768944450342.2852,1630.7692307692307,,0,-1,1768944450.3422852
1768944450350.0977,1639.5604395604394,,0,-1,1768944450.3500977
1768944450357.9102,1647.6190476190477,,0,-1,1768944450.3579102
1768944450365.723,1652.7472527472526,,0,-1,1768944450.365723
1768944450373.5352,1658.6080586080584,,0,-1,1768944450.3735352
1768944450381.3477,1660.805860805861,,0,-1,1768944450.3813477
1768944450389.1602,1659.3406593406592,,0,-1,1768944450.3891602
1768944450396.973,1654.212454212454,,0,-1,1768944450.396973
1768944450404.7852,1641.0256410256409,,0,-1,1768944450.4047852
1768944450412.5977,1627.8388278388277,,0,-1,1768944450.4125977
1768944450420.4102,1611.7216117216117,,0,-1,1768944450.4204102
1768944450428.223,1598.5347985347985,,0,-1,1768944450.428223
1768944450436.0352,1589.7435897435896,,0,-1,1768944450.4360352
1768944450443.8477,1578.021978021978,,0,-1,1768944450.4438477
1768944450451.6602,1569.9633699633698,,0,-1,1768944450.4516602
1768944450459.473,1563.3699633699632,,0,-1,1768944450.459473
1768944450467.2852,1557.5091575091574,,0,-1,1768944450.4672852
1768944450475.0977,1551.6483516483515,,0,-1,1768944450.4750977
1768944450482.9102,1542.124542124542,,0,-1,1768944450.4829102
1768944450490.723,1531.135531135531,,0,-1,1768944450.490723
1768944450498.5352,1517.9487179487178,,0,-1,1768944450.4985352
1768944450506.3477,1506.9597069597069,,0,-1,1768944450.5063477
1768944450514.1602,1499.6336996336995,,0,-1,1768944450.5141602
1768944450521.973,1494.5054945054944,,0,-1,1768944450.521973
1768944450529.7852,1490.10989010989,,0,-1,1768944450.5297852
1768944450537.5977,1487.179487179487,,0,-1,1768944450.5375977
1768944450545.4102,1493.7728937728937,,0,-1,1768944450.5454102
1768944450553.223,1498.9010989010987,,0,-1,1768944450.553223
1768944450561.0352,1498.9010989010987,,0,-1,1768944450.5610352
1768944450568.8477,1495.2380952380952,,0,-1,1768944450.5688477
1768944450576.6602,1490.10989010989,,0,-1,1768944450.5766602
1768944450584.473,1482.7838827838827,,0,-1,1768944450.584473
1768944450592.2852,1473.992673992674,,0,-1,1768944450.5922852
1768944450600.0977,1467.3992673992673,,0,-1,1768944450.6000977
1768944450607.9102,1462.2710622710622,,0,-1,1768944450.6079102
1768944450615.723,1461.5384615384614,,0,-1,1768944450.615723
1768944450623.5352,1460.07326007326,,0,-1,1768944450.6235352
1768944450631.3477,1463.7362637362637,,0,-1,1768944450.6313477
1768944450639.1602,1468.8644688644688,,0,-1,1768944450.6391602
1768944450646.973,1474.7252747252746,,0,-1,1768944450.646973
1768944450654.7852,1478.3882783882782,,0,-1,1768944450.6547852
1768944450662.5977,1476.923076923077,,0,-1,1768944450.6625977
1768944450670.4102,1475.4578754578754,,0,-1,1768944450.6704102
1768944450678.223,1475.4578754578754,,0,-1,1768944450.678223
1768944450686.0352,1471.062271062271,,0,-1,1768944450.6860352
1768944450693.8477,1463.7362637362637,,0,-1,1768944450.6938477
1768944450701.6602,1453.479853479853,,0,-1,1768944450.7016602
1768944450709.473,1443.2234432234432,,0,-1,1768944450.709473
1768944450717.2852,1432.9670329670328,,0,-1,1768944450.7172852
1768944450725.0977,1426.3736263736262,,0,-1,1768944450.7250977
1768944450732.9102,1416.8498168498168,,0,-1,1768944450.7329102
1768944450740.723,1413.1868131868132,,0,-1,1768944450.740723
1768944450748.5352,1410.2564102564102,,0,-1,1768944450.7485352
1768944450756.3477,1402.9304029304028,,0,-1,1768944450.7563477
1768944450764.1602,1399.2673992673992,,0,-1,1768944450.7641602
1768944450771.973,1397.8021978021975,,0,-1,1768944450.771973
1768944450779.7852,1398.5347985347985,,0,-1,1768944450.7797852
1768944450787.5977,1397.069597069597,,0,-1,1768944450.7875977
1768944450795.4102,1397.069597069597,,0,-1,1768944450.7954102
1768944450803.223,1396.3369963369962,,0,-1,1768944450.803223
1768944450811.0352,1395.6043956043954,,0,-1,1768944450.8110352
1768944450818.8477,1395.6043956043954,,0,-1,1768944450.8188477
1768944450826.6602,1401.4652014652013,,0,-1,1768944450.8266602
1768944450834.473,1415.3846153846152,,0,-1,1768944450.834473
1768944450842.2852,1433.6996336996335,,0,-1,1768944450.8422852
1768944450850.0977,1454.212454212454,,0,-1,1768944450.8500977
1768944450857.9102,1484.2490842490845,,0,-1,1768944450.8579102
1768944450865.723,1518.6813186813183,,0,-1,1768944450.865723
1768944450873.5352,1555.311355311355,,0,-1,1768944450.8735352
1768944450881.3477,1590.4761904761904,,0,-1,1768944450.8813477
1768944450889.1602,1618.3150183150185,,0,-1,1768944450.8891602
1768944450896.973,1635.8974358974358,,0,-1,1768944450.896973
1768944450904.7852,1648.3516483516482,,0,-1,1768944450.9047852
1768944450912.5977,1654.9450549450548,,0,-1,1768944450.9125977
1768944450920.4102,1662.2710622710622,,0,-1,1768944450.9204102
1768944450928.223,1665.201465201465,,0,-1,1768944450.928223
1768944450936.0352,1667.3992673992673,,0,-1,1768944450.9360352
1768944450943.8477,1669.5970695970695,,0,-1,1768944450.9438477
1768944450951.6602,1667.3992673992673,,0,-1,1768944450.9516602
1768944450959.473,1664.4688644688645,,0,-1,1768944450.959473
1768944450967.2852,1663.7362637362637,,0,-1,1768944450.9672852
1768944450975.0977,1656.4102564102564,,0,-1,1768944450.9750977
1768944450982.9102,1648.3516483516482,,0,-1,1768944450.9829102
1768944450990.723,1643.2234432234432,,0,-1,1768944450.990723
1768944450998.5352,1636.6300366300366,,0,-1,1768944450.9985352
1768944451006.3477,1630.7692307692307,,0,-1,1768944451.0063477
1768944451014.1602,1624.175824175824,,0,-1,1768944451.0141602
1768944451021.973,1612.4542124542124,,0,-1,1768944451.021973
1768944451029.7852,1603.6630036630036,,0,-1,1768944451.0297852
1768944451037.5977,1599.2673992673992,,0,-1,1768944451.0375977
1768944451045.4102,1589.7435897435896,,0,-1,1768944451.0454102
1768944451053.223,1579.4871794871794,,0,-1,1768944451.053223
1768944451061.0352,1564.102564102564,,0,-1,1768944451.0610352
1768944451068.8477,1555.311355311355,,0,-1,1768944451.0688477
1768944451076.6602,1545.054945054945,,0,-1,1768944451.0766602
1768944451084.473,1533.3333333333333,,0,-1,1768944451.084473
1768944451092.2852,1520.8791208791208,,0,-1,1768944451.0922852
1768944451100.0977,1507.6923076923076,,0,-1,1768944451.1000977
1768944451107.9102,1486.4468864468863,,0,-1,1768944451.1079102
1768944451115.723,1468.8644688644688,,0,-1,1768944451.115723
1768944451123.5352,1454.212454212454,,0,-1,1768944451.1235352
1768944451131.3477,1447.6190476190477,,0,-1,1768944451.1313477
1768944451139.1602,1444.688644688645,,0,-1,1768944451.1391602
1768944451146.973,1444.688644688645,,0,-1,1768944451.146973
1768944451154.7852,1449.8168498168498,,0,-1,1768944451.1547852
1768944451162.5977,1455.6776556776556,,0,-1,1768944451.1625977
1768944451170.4102,1456.4102564102564,,0,-1,1768944451.1704102
1768944451178.223,1453.479853479853,,0,-1,1768944451.178223
1768944451186.0352,1449.084249084249,,0,-1,1768944451.1860352
1768944451193.8477,1441.7582417582416,,0,-1,1768944451.1938477
1768944451201.6602,1435.164835164835,,0,-1,1768944451.2016602
1768944451209.473,1429.3040293040292,,0,-1,1768944451.209473
1768944451217.2852,1420.5128205128203,,0,-1,1768944451.2172852
1768944451225.0977,1412.4542124542124,,0,-1,1768944451.2250977
1768944451232.9102,1403.6630036630036,,0,-1,1768944451.2329102
1768944451240.723,1392.6739926739926,,0,-1,1768944451.240723
1768944451248.5352,1379.4871794871794,,0,-1,1768944451.2485352
1768944451256.3477,1367.7655677655678,,0,-1,1768944451.2563477
1768944451264.1602,1364.8351648351647,,0,-1,1768944451.2641602
1768944451271.973,1365.5677655677655,,0,-1,1768944451.271973
1768944451279.7852,1368.4981684981683,,0,-1,1768944451.2797852
1768944451287.5977,1368.4981684981683,,0,-1,1768944451.2875977
1768944451295.4102,1383.8827838827838,,0,-1,1768944451.2954102
1768944451303.223,1386.8131868131868,,0,-1,1768944451.303223
1768944451311.0352,1388.278388278388,,0,-1,1768944451.3110352
1768944451318.8477,1386.080586080586,,0,-1,1768944451.3188477
1768944451326.6602,1388.278388278388,,0,-1,1768944451.3266602
1768944451334.473,1392.6739926739926,,0,-1,1768944451.334473
1768944451342.2852,1398.5347985347985,,0,-1,1768944451.3422852
1768944451350.0977,1400.7326007326003,,0,-1,1768944451.3500977
1768944451357.9102,1400.0,,0,-1,1768944451.3579102
1768944451365.723,1391.941391941392,,0,-1,1768944451.365723
1768944451373.5352,1386.080586080586,,0,-1,1768944451.3735352
1768944451381.3477,1379.4871794871794,,0,-1,1768944451.3813477
1768944451389.1602,1375.091575091575,,0,-1,1768944451.3891602
1768944451396.973,1372.8937728937728,,0,-1,1768944451.396973
1768944451404.7852,1369.9633699633698,,0,-1,1768944451.4047852
1768944451412.5977,1370.6959706959706,,0,-1,1768944451.4125977
1768944451420.4102,1368.4981684981683,,0,-1,1768944451.4204102
1768944451428.223,1360.4395604395604,,0,-1,1768944451.428223
1768944451436.0352,1347.985347985348,,0,-1,1768944451.4360352
1768944451443.8477,1343.5897435897434,,0,-1,1768944451.4438477
1768944451451.6602,1341.3919413919414,,0,-1,1768944451.4516602
1768944451459.473,1347.985347985348,,0,-1,1768944451.459473
1768944451467.2852,1355.311355311355,,0,-1,1768944451.4672852
1768944451475.0977,1367.7655677655678,,0,-1,1768944451.4750977
1768944451482.9102,1378.021978021978,,0,-1,1768944451.4829102
1768944451490.723,1392.6739926739926,,0,-1,1768944451.490723
1768944451498.5352,1414.6520146520145,,0,-1,1768944451.4985352
1768944451506.3477,1432.9670329670328,,0,-1,1768944451.5063477
1768944451514.1602,1455.6776556776556,,0,-1,1768944451.5141602
1768944451521.973,1476.190476190476,,0,-1,1768944451.521973
1768944451529.7852,1498.9010989010987,,0,-1,1768944451.5297852
1768944451537.5977,1515.7509157509155,,0,-1,1768944451.5375977
1768944451545.4102,1534.7985347985348,,0,-1,1768944451.5454102
1768944451553.223,1551.6483516483515,,0,-1,1768944451.553223
1768944451561.0352,1563.3699633699632,,0,-1,1768944451.5610352
1768944451568.8477,1576.5567765567764,,0,-1,1768944451.5688477
1768944451576.6602,1591.2087912087911,,0,-1,1768944451.5766602
1768944451584.473,1599.2673992673992,,0,-1,1768944451.584473
1768944451592.2852,1608.7912087912086,,0,-1,1768944451.5922852
1768944451600.0977,1612.4542124542124,,0,-1,1768944451.6000977
1768944451607.9102,1617.5824175824175,,0,-1,1768944451.6079102
1768944451615.723,1626.3736263736262,,0,-1,1768944451.615723
1768944451623.5352,1635.164835164835,,0,-1,1768944451.6235352
1768944451631.3477,1641.0256410256409,,0,-1,1768944451.6313477
1768944451639.1602,1646.8864468864467,,0,-1,1768944451.6391602
1768944451646.973,1650.5494505494505,,0,-1,1768944451.646973
1768944451654.7852,1655.6776556776556,,0,-1,1768944451.6547852
1768944451662.5977,1656.4102564102564,,0,-1,1768944451.6625977
1768944451670.4102,1654.212454212454,,0,-1,1768944451.6704102
1768944451678.223,1646.153846153846,,0,-1,1768944451.678223
1768944451686.0352,1637.362637362637,,0,-1,1768944451.6860352
1768944451693.8477,1619.047619047619,,0,-1,1768944451.6938477
1768944451701.6602,1607.3260073260071,,0,-1,1768944451.7016602
1768944451709.473,1594.8717948717947,,0,-1,1768944451.709473
1768944451717.2852,1580.2197802197802,,0,-1,1768944451.7172852
1768944451725.0977,1569.230769230769,,0,-1,1768944451.7250977
1768944451732.9102,1553.113553113553,,0,-1,1768944451.7329102
1768944451740.723,1536.9963369963368,,0,-1,1768944451.740723
1768944451748.5352,1517.9487179487178,,0,-1,1768944451.7485352
1768944451756.3477,1495.2380952380952,,0,-1,1768944451.7563477
1768944451764.1602,1473.992673992674,,0,-1,1768944451.7641602
1768944451771.973,1459.3406593406592,,0,-1,1768944451.771973
1768944451779.7852,1445.4212454212454,,0,-1,1768944451.7797852
1768944451787.5977,1438.8278388278388,,0,-1,1768944451.7875977
1768944451795.4102,1427.8388278388277,,0,-1,1768944451.7954102
1768944451803.223,1422.7106227106226,,0,-1,1768944451.803223
1768944451811.0352,1419.047619047619,,0,-1,1768944451.8110352
1768944451818.8477,1416.8498168498168,,0,-1,1768944451.8188477
1768944451826.6602,1417.5824175824175,,0,-1,1768944451.8266602
1768944451834.473,1416.8498168498168,,0,-1,1768944451.834473
1768944451842.2852,1419.047619047619,,0,-1,1768944451.8422852
1768944451850.0977,1418.3150183150185,,0,-1,1768944451.8500977
1768944451857.9102,1423.4432234432234,,0,-1,1768944451.8579102
1768944451865.723,1422.7106227106226,,0,-1,1768944451.865723
1768944451873.5352,1428.5714285714284,,0,-1,1768944451.8735352
1768944451881.3477,1433.6996336996335,,0,-1,1768944451.8813477
1768944451889.1602,1438.095238095238,,0,-1,1768944451.8891602
1768944451896.973,1438.095238095238,,0,-1,1768944451.896973
1768944451904.7852,1439.5604395604394,,0,-1,1768944451.9047852
1768944451912.5977,1439.5604395604394,,0,-1,1768944451.9125977
1768944451920.4102,1442.4908424908424,,0,-1,1768944451.9204102
1768944451928.223,1443.2234432234432,,0,-1,1768944451.928223
1768944451936.0352,1445.4212454212454,,0,-1,1768944451.9360352
1768944451943.8477,1443.2234432234432,,0,-1,1768944451.9438477
1768944451951.6602,1435.8974358974358,,0,-1,1768944451.9516602
1768944451959.473,1430.7692307692307,,0,-1,1768944451.959473
1768944451967.2852,1421.9780219780218,,0,-1,1768944451.9672852
1768944451975.0977,1414.6520146520145,,0,-1,1768944451.9750977
1768944451982.9102,1404.3956043956043,,0,-1,1768944451.9829102
1768944451990.723,1392.6739926739926,,0,-1,1768944451.990723
1768944451998.5352,1388.278388278388,,0,-1,1768944451.9985352
1768944452006.3477,1378.7545787545787,,0,-1,1768944452.0063477
1768944452014.1602,1374.3589743589744,,0,-1,1768944452.0141602
1768944452021.973,1372.161172161172,,0,-1,1768944452.021973
1768944452029.7852,1371.428571428571,,0,-1,1768944452.0297852
1768944452037.5977,1374.3589743589744,,0,-1,1768944452.0375977
1768944452045.4102,1373.6263736263736,,0,-1,1768944452.0454102
1768944452053.223,1379.4871794871794,,0,-1,1768944452.053223
1768944452061.0352,1379.4871794871794,,0,-1,1768944452.0610352
1768944452068.8477,1380.2197802197802,,0,-1,1768944452.0688477
1768944452076.6602,1378.021978021978,,0,-1,1768944452.0766602
1768944452084.473,1375.091575091575,,0,-1,1768944452.084473
1768944452092.2852,1373.6263736263736,,0,-1,1768944452.0922852
1768944452100.0977,1368.4981684981683,,0,-1,1768944452.1000977
1768944452107.9102,1360.4395604395604,,0,-1,1768944452.1079102
1768944452115.723,1352.3809523809523,,0,-1,1768944452.115723
1768944452123.5352,1346.5201465201465,,0,-1,1768944452.1235352
1768944452131.3477,1335.5311355311355,,0,-1,1768944452.1313477
1768944452139.1602,1324.5421245421244,,0,-1,1768944452.1391602
1768944452146.973,1321.6117216117216,,0,-1,1768944452.146973
1768944452154.7852,1316.4835164835165,,0,-1,1768944452.1547852
1768944452162.5977,1317.216117216117,,0,-1,1768944452.1625977
1768944452170.4102,1324.5421245421244,,0,-1,1768944452.1704102
1768944452178.223,1326.739926739927,,0,-1,1768944452.178223
1768944452186.0352,1331.8681318681315,,0,-1,1768944452.1860352
1768944452193.8477,1337.7289377289376,,0,-1,1768944452.1938477
1768944452201.6602,1337.7289377289376,,0,-1,1768944452.2016602
1768944452209.473,1340.6593406593406,,0,-1,1768944452.209473
1768944452217.2852,1336.263736263736,,0,-1,1768944452.2172852
1768944452225.0977,1332.6007326007325,,0,-1,1768944452.2250977
1768944452232.9102,1323.076923076923,,0,-1,1768944452.2329102
1768944452240.723,1316.4835164835165,,0,-1,1768944452.240723
1768944452248.5352,1309.1575091575091,,0,-1,1768944452.2485352
1768944452256.3477,1304.0293040293038,,0,-1,1768944452.2563477
1768944452264.1602,1299.6336996336995,,0,-1,1768944452.2641602
1768944452271.973,1294.5054945054944,,0,-1,1768944452.271973
1768944452279.7852,1295.2380952380952,,0,-1,1768944452.2797852
1768944452287.5977,1293.7728937728937,,0,-1,1768944452.2875977
1768944452295.4102,1296.7032967032967,,0,-1,1768944452.2954102
1768944452303.223,1296.7032967032967,,0,-1,1768944452.303223
1768944452311.0352,1293.7728937728937,,0,-1,1768944452.3110352
1768944452318.8477,1295.970695970696,,0,-1,1768944452.3188477
1768944452326.6602,1294.5054945054944,,0,-1,1768944452.3266602
1768944452334.473,1286.4468864468863,,0,-1,1768944452.334473
1768944452342.2852,1279.120879120879,,0,-1,1768944452.3422852
1768944452350.0977,1276.923076923077,,0,-1,1768944452.3500977
1768944452357.9102,1273.260073260073,,0,-1,1768944452.3579102
1768944452365.723,1273.260073260073,,0,-1,1768944452.365723
1768944452373.5352,1273.260073260073,,0,-1,1768944452.3735352
1768944452381.3477,1275.4578754578754,,0,-1,1768944452.3813477
1768944452389.1602,1275.4578754578754,,0,-1,1768944452.3891602
1768944452396.973,1282.7838827838827,,0,-1,1768944452.396973
1768944452404.7852,1290.8424908424909,,0,-1,1768944452.4047852
1768944452412.5977,1302.5641025641023,,0,-1,1768944452.4125977
1768944452420.4102,1312.087912087912,,0,-1,1768944452.4204102
1768944452428.223,1333.3333333333333,,0,-1,1768944452.428223
1768944452436.0352,1354.5787545787546,,0,-1,1768944452.4360352
1768944452443.8477,1380.952380952381,,0,-1,1768944452.4438477
1768944452451.6602,1405.128205128205,,0,-1,1768944452.4516602
1768944452459.473,1424.9084249084249,,0,-1,1768944452.459473
1768944452467.2852,1444.688644688645,,0,-1,1768944452.4672852
1768944452475.0977,1456.4102564102564,,0,-1,1768944452.4750977
1768944452482.9102,1469.5970695970695,,0,-1,1768944452.4829102
1768944452490.723,1479.8534798534797,,0,-1,1768944452.490723
1768944452498.5352,1487.179487179487,,0,-1,1768944452.4985352
1768944452506.3477,1498.9010989010987,,0,-1,1768944452.5063477
1768944452514.1602,1506.9597069597069,,0,-1,1768944452.5141602
1768944452521.973,1519.4139194139193,,0,-1,1768944452.521973
1768944452529.7852,1526.739926739927,,0,-1,1768944452.5297852
1768944452537.5977,1534.065934065934,,0,-1,1768944452.5375977
1768944452545.4102,1536.9963369963368,,0,-1,1768944452.5454102
1768944452553.223,1540.6593406593406,,0,-1,1768944452.553223
1768944452561.0352,1541.3919413919414,,0,-1,1768944452.5610352
1768944452568.8477,1541.3919413919414,,0,-1,1768944452.5688477
1768944452576.6602,1540.6593406593406,,0,-1,1768944452.5766602
1768944452584.473,1536.263736263736,,0,-1,1768944452.584473
1768944452592.2852,1534.065934065934,,0,-1,1768944452.5922852
1768944452600.0977,1534.065934065934,,0,-1,1768944452.6000977
1768944452607.9102,1531.8681318681315,,0,-1,1768944452.6079102
1768944452615.723,1530.4029304029302,,0,-1,1768944452.615723
1768944452623.5352,1528.937728937729,,0,-1,1768944452.6235352
1768944452631.3477,1521.6117216117216,,0,-1,1768944452.6313477
1768944452639.1602,1517.9487179487178,,0,-1,1768944452.6391602
1768944452646.973,1514.2857142857142,,0,-1,1768944452.646973
1768944452654.7852,1511.3553113553112,,0,-1,1768944452.6547852
1768944452662.5977,1510.6227106227104,,0,-1,1768944452.6625977
1768944452670.4102,1506.9597069597069,,0,-1,1768944452.6704102
1768944452678.223,1504.0293040293038,,0,-1,1768944452.678223
1768944452686.0352,1503.2967032967033,,0,-1,1768944452.6860352
1768944452693.8477,1502.5641025641023,,0,-1,1768944452.6938477
1768944452701.6602,1498.168498168498,,0,-1,1768944452.7016602
1768944452709.473,1497.4358974358972,,0,-1,1768944452.709473
1768944452717.2852,1494.5054945054944,,0,-1,1768944452.7172852
1768944452725.0977,1487.179487179487,,0,-1,1768944452.7250977
1768944452732.9102,1472.5274725274724,,0,-1,1768944452.7329102
1768944452740.723,1458.6080586080584,,0,-1,1768944452.740723
1768944452748.5352,1447.6190476190477,,0,-1,1768944452.7485352
1768944452756.3477,1450.5494505494505,,0,-1,1768944452.7563477
1768944452764.1602,1455.6776556776556,,0,-1,1768944452.7641602
1768944452771.973,1463.7362637362637,,0,-1,1768944452.771973
1768944452779.7852,1465.9340659340658,,0,-1,1768944452.7797852
1768944452787.5977,1463.7362637362637,,0,-1,1768944452.7875977
1768944452795.4102,1462.2710622710622,,0,-1,1768944452.7954102
1768944452803.223,1462.2710622710622,,0,-1,1768944452.803223
1768944452811.0352,1456.4102564102564,,0,-1,1768944452.8110352
1768944452818.8477,1452.7472527472526,,0,-1,1768944452.8188477
1768944452826.6602,1443.956043956044,,0,-1,1768944452.8266602
1768944452834.473,1435.8974358974358,,0,-1,1768944452.834473
1768944452842.2852,1432.2344322344322,,0,-1,1768944452.8422852
1768944452850.0977,1424.9084249084249,,0,-1,1768944452.8500977
1768944452857.9102,1419.047619047619,,0,-1,1768944452.8579102
1768944452865.723,1413.9194139194135,,0,-1,1768944452.865723
1768944452873.5352,1408.7912087912086,,0,-1,1768944452.8735352
1768944452881.3477,1394.8717948717947,,0,-1,1768944452.8813477
1768944452889.1602,1380.952380952381,,0,-1,1768944452.8891602
1768944452896.973,1362.6373626373625,,0,-1,1768944452.896973
1768944452904.7852,1342.124542124542,,0,-1,1768944452.9047852
1768944452912.5977,1324.5421245421244,,0,-1,1768944452.9125977
1768944452920.4102,1307.6923076923076,,0,-1,1768944452.9204102
1768944452928.223,1294.5054945054944,,0,-1,1768944452.928223
1768944452936.0352,1277.6556776556777,,0,-1,1768944452.9360352
1768944452943.8477,1257.875457875458,,0,-1,1768944452.9438477
1768944452951.6602,1242.4908424908424,,0,-1,1768944452.9516602
1768944452959.473,1228.5714285714284,,0,-1,1768944452.959473
1768944452967.2852,1218.3150183150185,,0,-1,1768944452.9672852
1768944452975.0977,1211.7216117216117,,0,-1,1768944452.9750977
1768944452982.9102,1210.989010989011,,0,-1,1768944452.9829102
1768944452990.723,1218.3150183150185,,0,-1,1768944452.990723
1768944452998.5352,1222.7106227106226,,0,-1,1768944452.9985352
1768944453006.3477,1227.106227106227,,0,-1,1768944453.0063477
1768944453014.1602,1230.7692307692307,,0,-1,1768944453.0141602
1768944453021.973,1230.7692307692307,,0,-1,1768944453.021973
1768944453029.7852,1229.3040293040292,,0,-1,1768944453.0297852
1768944453037.5977,1226.3736263736264,,0,-1,1768944453.0375977
1768944453045.4102,1223.4432234432234,,0,-1,1768944453.0454102
1768944453053.223,1225.6410256410256,,0,-1,1768944453.053223
1768944453061.0352,1227.106227106227,,0,-1,1768944453.0610352
1768944453068.8477,1227.8388278388277,,0,-1,1768944453.0688477
1768944453076.6602,1232.2344322344322,,0,-1,1768944453.0766602
1768944453084.473,1236.6300366300366,,0,-1,1768944453.084473
1768944453092.2852,1240.29304029304,,0,-1,1768944453.0922852
1768944453100.0977,1244.688644688645,,0,-1,1768944453.1000977
1768944453107.9102,1254.212454212454,,0,-1,1768944453.1079102
1768944453115.723,1262.2710622710622,,0,-1,1768944453.115723
1768944453123.5352,1279.120879120879,,0,-1,1768944453.1235352
1768944453131.3477,1290.10989010989,,0,-1,1768944453.1313477
1768944453139.1602,1293.040293040293,,0,-1,1768944453.1391602
1768944453146.973,1294.5054945054944,,0,-1,1768944453.146973
1768944453154.7852,1293.040293040293,,0,-1,1768944453.1547852
1768944453162.5977,1287.179487179487,,0,-1,1768944453.1625977
1768944453170.4102,1284.2490842490845,,0,-1,1768944453.1704102
1768944453178.223,1277.6556776556777,,0,-1,1768944453.178223
1768944453186.0352,1276.923076923077,,0,-1,1768944453.1860352
1768944453193.8477,1273.992673992674,,0,-1,1768944453.1938477
1768944453201.6602,1271.7948717948716,,0,-1,1768944453.2016602
1768944453209.473,1272.5274725274724,,0,-1,1768944453.209473
1768944453217.2852,1273.992673992674,,0,-1,1768944453.2172852
1768944453225.0977,1279.120879120879,,0,-1,1768944453.2250977
1768944453232.9102,1286.4468864468863,,0,-1,1768944453.2329102
1768944453240.723,1289.3772893772891,,0,-1,1768944453.240723
1768944453248.5352,1290.10989010989,,0,-1,1768944453.2485352
1768944453256.3477,1293.040293040293,,0,-1,1768944453.2563477
1768944453264.1602,1298.9010989010987,,0,-1,1768944453.2641602
1768944453271.973,1301.8315018315018,,0,-1,1768944453.271973
1768944453279.7852,1309.89010989011,,0,-1,1768944453.2797852
1768944453287.5977,1317.216117216117,,0,-1,1768944453.2875977
1768944453295.4102,1328.937728937729,,1,1,1768944453.2954102
1768944453303.223,1339.194139194139,,1,1,1768944453.303223
1768944453311.0352,1356.043956043956,,1,1,1768944453.3110352
1768944453318.8477,1368.4981684981683,,1,1,1768944453.3188477
1768944453326.6602,1389.7435897435896,,1,1,1768944453.3266602
1768944453334.473,1405.128205128205,,1,1,1768944453.334473
1768944453342.2852,1421.245421245421,,1,1,1768944453.3422852
1768944453350.0977,1433.6996336996335,,1,1,1768944453.3500977
1768944453357.9102,1443.2234432234432,,1,1,1768944453.3579102
1768944453365.723,1449.8168498168498,,1,1,1768944453.365723
1768944453373.5352,1450.5494505494505,,1,1,1768944453.3735352
1768944453381.3477,1444.688644688645,,1,1,1768944453.3813477
1768944453389.1602,1438.095238095238,,1,1,1768944453.3891602
1768944453396.973,1433.6996336996335,,1,1,1768944453.396973
1768944453404.7852,1426.3736263736262,,1,1,1768944453.4047852
1768944453412.5977,1416.117216117216,,1,1,1768944453.4125977
1768944453420.4102,1408.7912087912086,,1,1,1768944453.4204102
1768944453428.223,1404.3956043956043,,1,1,1768944453.428223
1768944453436.0352,1402.9304029304028,,1,1,1768944453.4360352
1768944453443.8477,1402.9304029304028,,1,1,1768944453.4438477
1768944453451.6602,1405.128205128205,,1,1,1768944453.4516602
1768944453459.473,1406.5934065934066,,1,1,1768944453.459473
1768944453467.2852,1406.5934065934066,,1,1,1768944453.4672852
1768944453475.0977,1409.5238095238094,,1,1,1768944453.4750977
1768944453482.9102,1409.5238095238094,,1,1,1768944453.4829102
1768944453490.723,1407.3260073260071,,1,1,1768944453.490723
1768944453498.5352,1408.058608058608,,1,1,1768944453.4985352
1768944453506.3477,1409.5238095238094,,1,1,1768944453.5063477
1768944453514.1602,1402.9304029304028,,1,1,1768944453.5141602
1768944453521.973,1396.3369963369962,,1,1,1768944453.521973
1768944453529.7852,1383.8827838827838,,1,1,1768944453.5297852
1768944453537.5977,1371.428571428571,,1,1,1768944453.5375977
1768944453545.4102,1358.974358974359,,1,1,1768944453.5454102
1768944453553.223,1345.054945054945,,1,1,1768944453.553223
1768944453561.0352,1330.4029304029302,,1,1,1768944453.5610352
1768944453568.8477,1315.018315018315,,1,1,1768944453.5688477
1768944453576.6602,1306.227106227106,,1,1,1768944453.5766602
1768944453584.473,1304.0293040293038,,1,1,1768944453.584473
1768944453592.2852,1309.1575091575091,,1,1,1768944453.5922852
1768944453600.0977,1315.7509157509155,,1,1,1768944453.6000977
1768944453607.9102,1320.8791208791208,,1,1,1768944453.6079102
1768944453615.723,1323.8095238095236,,1,1,1768944453.615723
1768944453623.5352,1326.739926739927,,1,1,1768944453.6235352
1768944453631.3477,1331.8681318681315,,1,1,1768944453.6313477
1768944453639.1602,1331.135531135531,,1,1,1768944453.6391602
1768944453646.973,1323.076923076923,,1,1,1768944453.646973
1768944453654.7852,1317.9487179487178,,1,1,1768944453.6547852
1768944453662.5977,1316.4835164835165,,1,1,1768944453.6625977
1768944453670.4102,1315.7509157509155,,1,1,1768944453.6704102
1768944453678.223,1317.9487179487178,,1,1,1768944453.678223
1768944453686.0352,1324.5421245421244,,1,1,1768944453.6860352
1768944453693.8477,1327.4725274725274,,1,1,1768944453.6938477
1768944453701.6602,1328.2051282051282,,1,1,1768944453.7016602
1768944453709.473,1327.4725274725274,,1,1,1768944453.709473
1768944453717.2852,1331.135531135531,,1,1,1768944453.7172852
1768944453725.0977,1335.5311355311355,,1,1,1768944453.7250977
1768944453732.9102,1334.065934065934,,1,1,1768944453.7329102
1768944453740.723,1331.8681318681315,,1,1,1768944453.740723
1768944453748.5352,1329.6703296703297,,1,1,1768944453.7485352
1768944453756.3477,1321.6117216117216,,1,1,1768944453.7563477
1768944453764.1602,1306.9597069597069,,1,1,1768944453.7641602
1768944453771.973,1293.7728937728937,,1,1,1768944453.771973
1768944453779.7852,1289.3772893772891,,1,1,1768944453.7797852
1768944453787.5977,1288.6446886446886,,1,1,1768944453.7875977
1768944453795.4102,1290.10989010989,,1,1,1768944453.7954102
1768944453803.223,1296.7032967032967,,1,1,1768944453.803223
1768944453811.0352,1306.227106227106,,1,1,1768944453.8110352
1768944453818.8477,1315.7509157509155,,1,1,1768944453.8188477
1768944453826.6602,1321.6117216117216,,1,1,1768944453.8266602
1768944453834.473,1326.739926739927,,1,1,1768944453.834473
1768944453842.2852,1326.739926739927,,1,1,1768944453.8422852
1768944453850.0977,1320.14652014652,,1,1,1768944453.8500977
1768944453857.9102,1305.4945054945051,,1,1,1768944453.8579102
1768944453865.723,1290.10989010989,,1,1,1768944453.865723
1768944453873.5352,1281.3186813186812,,1,1,1768944453.8735352
1768944453881.3477,1274.7252747252746,,1,1,1768944453.8813477
1768944453889.1602,1272.5274725274724,,1,1,1768944453.8891602
1768944453896.973,1269.5970695970695,,1,1,1768944453.896973
1768944453904.7852,1262.2710622710622,,1,1,1768944453.9047852
1768944453912.5977,1255.6776556776556,,1,1,1768944453.9125977
1768944453920.4102,1252.7472527472526,,1,1,1768944453.9204102
1768944453928.223,1256.4102564102564,,1,1,1768944453.928223
1768944453936.0352,1260.805860805861,,1,1,1768944453.9360352
1768944453943.8477,1266.6666666666663,,1,1,1768944453.9438477
1768944453951.6602,1274.7252747252746,,1,1,1768944453.9516602
1768944453959.473,1281.3186813186812,,1,1,1768944453.959473
1768944453967.2852,1280.5860805860805,,1,1,1768944453.9672852
1768944453975.0977,1280.5860805860805,,1,1,1768944453.9750977
1768944453982.9102,1282.7838827838827,,1,1,1768944453.9829102
1768944453990.723,1283.5164835164835,,1,1,1768944453.990723
1768944453998.5352,1284.9816849816848,,1,1,1768944453.9985352
1768944454006.3477,1286.4468864468863,,1,1,1768944454.0063477
1768944454014.1602,1284.2490842490845,,1,1,1768944454.0141602
1768944454021.973,1281.3186813186812,,1,1,1768944454.021973
1768944454029.7852,1278.3882783882782,,1,1,1768944454.0297852
1768944454037.5977,1279.120879120879,,1,1,1768944454.0375977
1768944454045.4102,1277.6556776556777,,1,1,1768944454.0454102
1768944454053.223,1275.4578754578754,,1,1,1768944454.053223
1768944454061.0352,1273.992673992674,,1,1,1768944454.0610352
1768944454068.8477,1271.062271062271,,1,1,1768944454.0688477
1768944454076.6602,1270.3296703296703,,1,1,1768944454.0766602
1768944454084.473,1271.062271062271,,1,1,1768944454.084473
1768944454092.2852,1276.923076923077,,1,1,1768944454.0922852
1768944454100.0977,1287.179487179487,,1,1,1768944454.1000977
1768944454107.9102,1297.4358974358977,,1,1,1768944454.1079102
1768944454115.723,1310.6227106227104,,1,1,1768944454.115723
1768944454123.5352,1320.8791208791208,,1,1,1768944454.1235352
1768944454131.3477,1331.135531135531,,1,1,1768944454.1313477
1768944454139.1602,1339.92673992674,,1,1,1768944454.1391602
1768944454146.973,1346.5201465201465,,1,1,1768944454.146973
1768944454154.7852,1351.6483516483515,,1,1,1768944454.1547852
1768944454162.5977,1357.5091575091574,,1,1,1768944454.1625977
1768944454170.4102,1364.8351648351647,,1,1,1768944454.1704102
1768944454178.223,1367.7655677655678,,1,1,1768944454.178223
1768944454186.0352,1370.6959706959706,,1,1,1768944454.1860352
1768944454193.8477,1374.3589743589744,,1,1,1768944454.1938477
1768944454201.6602,1379.4871794871794,,1,1,1768944454.2016602
1768944454209.473,1383.150183150183,,1,1,1768944454.209473
1768944454217.2852,1384.6153846153843,,1,1,1768944454.2172852
1768944454225.0977,1386.080586080586,,1,1,1768944454.2250977
1768944454232.9102,1381.6849816849815,,1,1,1768944454.2329102
1768944454240.723,1377.2893772893772,,1,1,1768944454.240723
1768944454248.5352,1373.6263736263736,,1,1,1768944454.2485352
1768944454256.3477,1371.428571428571,,1,1,1768944454.2563477
1768944454264.1602,1367.7655677655678,,1,1,1768944454.2641602
1768944454271.973,1364.102564102564,,1,1,1768944454.271973
1768944454279.7852,1363.3699633699632,,1,1,1768944454.2797852
1768944454287.5977,1360.4395604395604,,1,1,1768944454.2875977
1768944454295.4102,1353.8461538461538,,1,1,1768944454.2954102
1768944454303.223,1341.3919413919414,,1,1,1768944454.303223
1768944454311.0352,1330.4029304029302,,1,1,1768944454.3110352
1768944454318.8477,1322.3443223443223,,1,1,1768944454.3188477
1768944454326.6602,1315.7509157509155,,1,1,1768944454.3266602
1768944454334.473,1312.8205128205127,,1,1,1768944454.334473
1768944454342.2852,1313.5531135531137,,1,1,1768944454.3422852
1768944454350.0977,1317.9487179487178,,1,1,1768944454.3500977
1768944454357.9102,1323.8095238095236,,1,1,1768944454.3579102
1768944454365.723,1330.4029304029302,,1,1,1768944454.365723
1768944454373.5352,1336.263736263736,,1,1,1768944454.3735352
1768944454381.3477,1335.5311355311355,,1,1,1768944454.3813477
1768944454389.1602,1337.7289377289376,,1,1,1768944454.3891602
1768944454396.973,1336.263736263736,,1,1,1768944454.396973
1768944454404.7852,1334.7985347985348,,1,1,1768944454.4047852
1768944454412.5977,1336.9963369963368,,1,1,1768944454.4125977
1768944454420.4102,1334.7985347985348,,1,1,1768944454.4204102
1768944454428.223,1327.4725274725274,,1,1,1768944454.428223
1768944454436.0352,1317.216117216117,,1,1,1768944454.4360352
1768944454443.8477,1305.4945054945051,,1,1,1768944454.4438477
1768944454451.6602,1299.6336996336995,,1,1,1768944454.4516602
1768944454459.473,1294.5054945054944,,1,1,1768944454.459473
1768944454467.2852,1290.8424908424909,,1,1,1768944454.4672852
1768944454475.0977,1293.040293040293,,1,1,1768944454.4750977
1768944454482.9102,1296.7032967032967,,1,1,1768944454.4829102
1768944454490.723,1299.6336996336995,,1,1,1768944454.490723
1768944454498.5352,1304.7619047619046,,1,1,1768944454.4985352
1768944454506.3477,1307.6923076923076,,1,1,1768944454.5063477
1768944454514.1602,1306.227106227106,,1,1,1768944454.5141602
1768944454521.973,1300.3663003663005,,1,1,1768944454.521973
1768944454529.7852,1293.040293040293,,1,1,1768944454.5297852
1768944454537.5977,1288.6446886446886,,1,1,1768944454.5375977
1768944454545.4102,1284.2490842490845,,1,1,1768944454.5454102
1768944454553.223,1276.923076923077,,1,1,1768944454.553223
1768944454561.0352,1271.7948717948716,,1,1,1768944454.5610352
1768944454568.8477,1273.992673992674,,1,1,1768944454.5688477
1768944454576.6602,1276.923076923077,,1,1,1768944454.5766602
1768944454584.473,1283.5164835164835,,1,1,1768944454.584473
1768944454592.2852,1291.5750915750914,,1,1,1768944454.5922852
1768944454600.0977,1299.6336996336995,,1,1,1768944454.6000977
1768944454607.9102,1301.8315018315018,,1,1,1768944454.6079102
1768944454615.723,1305.4945054945051,,1,1,1768944454.615723
1768944454623.5352,1306.227106227106,,1,1,1768944454.6235352
1768944454631.3477,1306.9597069597069,,1,1,1768944454.6313477
1768944454639.1602,1306.9597069597069,,1,1,1768944454.6391602
1768944454646.973,1305.4945054945051,,1,1,1768944454.646973
1768944454654.7852,1301.098901098901,,1,1,1768944454.6547852
1768944454662.5977,1295.970695970696,,1,1,1768944454.6625977
1768944454670.4102,1289.3772893772891,,1,1,1768944454.6704102
1768944454678.223,1284.2490842490845,,1,1,1768944454.678223
1768944454686.0352,1277.6556776556777,,1,1,1768944454.6860352
1768944454693.8477,1270.3296703296703,,1,1,1768944454.6938477
1768944454701.6602,1263.7362637362637,,1,1,1768944454.7016602
1768944454709.473,1259.3406593406592,,1,1,1768944454.709473
1768944454717.2852,1257.875457875458,,1,1,1768944454.7172852
1768944454725.0977,1258.6080586080586,,1,1,1768944454.7250977
1768944454732.9102,1263.003663003663,,1,1,1768944454.7329102
1768944454740.723,1267.3992673992673,,1,1,1768944454.740723
1768944454748.5352,1274.7252747252746,,1,1,1768944454.7485352
1768944454756.3477,1278.3882783882782,,1,1,1768944454.7563477
1768944454764.1602,1279.120879120879,,1,1,1768944454.7641602
1768944454771.973,1277.6556776556777,,1,1,1768944454.771973
1768944454779.7852,1273.260073260073,,1,1,1768944454.7797852
1768944454787.5977,1269.5970695970695,,1,1,1768944454.7875977
1768944454795.4102,1268.8644688644688,,1,1,1768944454.7954102
1768944454803.223,1267.3992673992673,,1,1,1768944454.803223
1768944454811.0352,1270.3296703296703,,1,1,1768944454.8110352
1768944454818.8477,1271.7948717948716,,1,1,1768944454.8188477
1768944454826.6602,1272.5274725274724,,1,1,1768944454.8266602
1768944454834.473,1276.923076923077,,1,1,1768944454.834473
1768944454842.2852,1278.3882783882782,,1,1,1768944454.8422852
1768944454850.0977,1281.3186813186812,,1,1,1768944454.8500977
1768944454857.9102,1290.10989010989,,1,1,1768944454.8579102
1768944454865.723,1301.098901098901,,1,1,1768944454.865723
1768944454873.5352,1315.7509157509155,,1,1,1768944454.8735352
1768944454881.3477,1331.135531135531,,1,1,1768944454.8813477
1768944454889.1602,1341.3919413919414,,1,1,1768944454.8891602
1768944454896.973,1348.7179487179487,,1,1,1768944454.896973
1768944454904.7852,1353.8461538461538,,1,1,1768944454.9047852
1768944454912.5977,1358.241758241758,,1,1,1768944454.9125977
1768944454920.4102,1361.1721611721612,,1,1,1768944454.9204102
1768944454928.223,1362.6373626373625,,1,1,1768944454.928223
1768944454936.0352,1364.8351648351647,,1,1,1768944454.9360352
1768944454943.8477,1367.7655677655678,,1,1,1768944454.9438477
1768944454951.6602,1372.8937728937728,,1,1,1768944454.9516602
1768944454959.473,1375.8241758241757,,1,1,1768944454.959473
1768944454967.2852,1375.091575091575,,1,1,1768944454.9672852
1768944454975.0977,1370.6959706959706,,1,1,1768944454.9750977
1768944454982.9102,1362.6373626373625,,1,1,1768944454.9829102
1768944454990.723,1352.3809523809523,,1,1,1768944454.990723
1768944454998.5352,1340.6593406593406,,1,1,1768944454.9985352
1768944455006.3477,1326.739926739927,,1,1,1768944455.0063477
1768944455014.1602,1316.4835164835165,,1,1,1768944455.0141602
1768944455021.973,1310.6227106227104,,1,1,1768944455.021973
1768944455029.7852,1309.1575091575091,,1,1,1768944455.0297852
1768944455037.5977,1312.8205128205127,,1,1,1768944455.0375977
1768944455045.4102,1315.018315018315,,1,1,1768944455.0454102
1768944455053.223,1316.4835164835165,,1,1,1768944455.053223
1768944455061.0352,1318.6813186813183,,1,1,1768944455.0610352
1768944455068.8477,1320.14652014652,,1,1,1768944455.0688477
1768944455076.6602,1317.9487179487178,,1,1,1768944455.0766602
1768944455084.473,1312.8205128205127,,1,1,1768944455.084473
1768944455092.2852,1308.4249084249084,,1,1,1768944455.0922852
1768944455100.0977,1309.1575091575091,,1,1,1768944455.1000977
1768944455107.9102,1309.89010989011,,1,1,1768944455.1079102
1768944455115.723,1310.6227106227104,,1,1,1768944455.115723
1768944455123.5352,1312.087912087912,,1,1,1768944455.1235352
1768944455131.3477,1314.2857142857142,,1,1,1768944455.1313477
1768944455139.1602,1313.5531135531137,,1,1,1768944455.1391602
1768944455146.973,1310.6227106227104,,1,1,1768944455.146973
1768944455154.7852,1306.9597069597069,,1,1,1768944455.1547852
1768944455162.5977,1302.5641025641023,,1,1,1768944455.1625977
1768944455170.4102,1300.3663003663005,,1,1,1768944455.1704102
1768944455178.223,1298.9010989010987,,1,1,1768944455.178223
1768944455186.0352,1298.168498168498,,1,1,1768944455.1860352
1768944455193.8477,1296.7032967032967,,1,1,1768944455.1938477
1768944455201.6602,1296.7032967032967,,1,1,1768944455.2016602
1768944455209.473,1301.8315018315018,,1,1,1768944455.209473
1768944455217.2852,1306.227106227106,,1,1,1768944455.2172852
1768944455225.0977,1307.6923076923076,,1,1,1768944455.2250977
1768944455232.9102,1307.6923076923076,,1,1,1768944455.2329102
1768944455240.723,1304.0293040293038,,1,1,1768944455.240723
1768944455248.5352,1301.098901098901,,1,1,1768944455.2485352
1768944455256.3477,1300.3663003663005,,1,1,1768944455.2563477
1768944455264.1602,1303.2967032967033,,1,1,1768944455.2641602
1768944455271.973,1305.4945054945051,,1,1,1768944455.271973
1768944455279.7852,1309.1575091575091,,1,1,1768944455.2797852
1768944455287.5977,1310.6227106227104,,1,1,1768944455.2875977
1768944455295.4102,1309.89010989011,,1,1,1768944455.2954102
1768944455303.223,1308.4249084249084,,1,1,1768944455.303223
1768944455311.0352,1305.4945054945051,,1,1,1768944455.3110352
1768944455318.8477,1301.8315018315018,,1,1,1768944455.3188477
1768944455326.6602,1299.6336996336995,,1,1,1768944455.3266602
1768944455334.473,1300.3663003663005,,1,1,1768944455.334473
1768944455342.2852,1301.098901098901,,1,1,1768944455.3422852
1768944455350.0977,1300.3663003663005,,1,1,1768944455.3500977
1768944455357.9102,1297.4358974358977,,1,1,1768944455.3579102
1768944455365.723,1290.8424908424909,,1,1,1768944455.365723
1768944455373.5352,1287.179487179487,,1,1,1768944455.3735352
1768944455381.3477,1287.179487179487,,1,1,1768944455.3813477
1768944455389.1602,1287.179487179487,,1,1,1768944455.3891602
1768944455396.973,1287.9120879120878,,1,1,1768944455.396973
1768944455404.7852,1288.6446886446886,,1,1,1768944455.4047852
1768944455412.5977,1293.040293040293,,1,1,1768944455.4125977
1768944455420.4102,1295.970695970696,,1,1,1768944455.4204102
1768944455428.223,1297.4358974358977,,1,1,1768944455.428223
1768944455436.0352,1299.6336996336995,,1,1,1768944455.4360352
1768944455443.8477,1300.3663003663005,,1,1,1768944455.4438477
1768944455451.6602,1301.8315018315018,,1,1,1768944455.4516602
1768944455459.473,1304.0293040293038,,1,1,1768944455.459473
1768944455467.2852,1303.2967032967033,,1,1,1768944455.4672852
1768944455475.0977,1301.8315018315018,,1,1,1768944455.4750977
1768944455482.9102,1301.098901098901,,1,1,1768944455.4829102
1768944455490.723,1293.040293040293,,1,1,1768944455.490723
1768944455498.5352,1284.9816849816848,,1,1,1768944455.4985352
1768944455506.3477,1282.051282051282,,1,1,1768944455.5063477
1768944455514.1602,1276.923076923077,,1,1,1768944455.5141602
1768944455521.973,1273.260073260073,,1,1,1768944455.521973
1768944455529.7852,1273.260073260073,,1,1,1768944455.5297852
1768944455537.5977,1276.923076923077,,1,1,1768944455.5375977
1768944455545.4102,1280.5860805860805,,1,1,1768944455.5454102
1768944455553.223,1285.7142857142856,,1,1,1768944455.553223
1768944455561.0352,1291.5750915750914,,1,1,1768944455.5610352
1768944455568.8477,1294.5054945054944,,1,1,1768944455.5688477
1768944455576.6602,1297.4358974358977,,1,1,1768944455.5766602
1768944455584.473,1299.6336996336995,,1,1,1768944455.584473
1768944455592.2852,1302.5641025641023,,1,1,1768944455.5922852
1768944455600.0977,1308.4249084249084,,1,1,1768944455.6000977
1768944455607.9102,1313.5531135531137,,1,1,1768944455.6079102
1768944455615.723,1314.2857142857142,,1,1,1768944455.615723
1768944455623.5352,1306.227106227106,,1,1,1768944455.6235352
1768944455631.3477,1298.9010989010987,,1,1,1768944455.6313477
1768944455639.1602,1292.3076923076922,,1,1,1768944455.6391602
1768944455646.973,1289.3772893772891,,1,1,1768944455.646973
1768944455654.7852,1287.179487179487,,1,1,1768944455.6547852
1768944455662.5977,1286.4468864468863,,1,1,1768944455.6625977
1768944455670.4102,1290.8424908424909,,1,1,1768944455.6704102
1768944455678.223,1296.7032967032967,,1,1,1768944455.678223
1768944455686.0352,1301.8315018315018,,1,1,1768944455.6860352
1768944455693.8477,1304.7619047619046,,1,1,1768944455.6938477
1768944455701.6602,1308.4249084249084,,1,1,1768944455.7016602
1768944455709.473,1308.4249084249084,,1,1,1768944455.709473
1768944455717.2852,1309.89010989011,,1,1,1768944455.7172852
1768944455725.0977,1312.8205128205127,,1,1,1768944455.7250977
1768944455732.9102,1317.9487179487178,,1,1,1768944455.7329102
1768944455740.723,1325.2747252747251,,1,1,1768944455.740723
1768944455748.5352,1332.6007326007325,,1,1,1768944455.7485352
1768944455756.3477,1339.194139194139,,1,1,1768944455.7563477
1768944455764.1602,1343.5897435897434,,1,1,1768944455.7641602
1768944455771.973,1342.857142857143,,1,1,1768944455.771973
1768944455779.7852,1341.3919413919414,,1,1,1768944455.7797852
1768944455787.5977,1342.857142857143,,1,1,1768944455.7875977
1768944455795.4102,1345.054945054945,,1,1,1768944455.7954102
1768944455803.223,1344.3223443223442,,1,1,1768944455.803223
1768944455811.0352,1344.3223443223442,,1,1,1768944455.8110352
1768944455818.8477,1340.6593406593406,,1,1,1768944455.8188477
1768944455826.6602,1338.4615384615383,,0,-1,1768944455.8266602
1768944455834.473,1335.5311355311355,,0,-1,1768944455.834473
1768944455842.2852,1331.135531135531,,0,-1,1768944455.8422852
1768944455850.0977,1323.8095238095236,,0,-1,1768944455.8500977
1768944455857.9102,1316.4835164835165,,0,-1,1768944455.8579102
1768944455865.723,1309.89010989011,,0,-1,1768944455.865723
1768944455873.5352,1305.4945054945051,,0,-1,1768944455.8735352
1768944455881.3477,1303.2967032967033,,0,-1,1768944455.8813477
1768944455889.1602,1303.2967032967033,,0,-1,1768944455.8891602
1768944455896.973,1298.9010989010987,,0,-1,1768944455.896973
1768944455904.7852,1295.970695970696,,0,-1,1768944455.9047852
1768944455912.5977,1293.7728937728937,,0,-1,1768944455.9125977
1768944455920.4102,1290.8424908424909,,0,-1,1768944455.9204102
1768944455928.223,1291.5750915750914,,0,-1,1768944455.928223
1768944455936.0352,1291.5750915750914,,0,-1,1768944455.9360352
1768944455943.8477,1292.3076923076922,,0,-1,1768944455.9438477
1768944455951.6602,1296.7032967032967,,0,-1,1768944455.9516602
1768944455959.473,1294.5054945054944,,0,-1,1768944455.959473
1768944455967.2852,1295.970695970696,,0,-1,1768944455.9672852
1768944455975.0977,1301.8315018315018,,0,-1,1768944455.9750977
1768944455982.9102,1302.5641025641023,,0,-1,1768944455.9829102
1768944455990.723,1306.9597069597069,,0,-1,1768944455.990723
1768944455998.5352,1305.4945054945051,,0,-1,1768944455.9985352
1768944456006.3477,1302.5641025641023,,0,-1,1768944456.0063477
1768944456014.1602,1297.4358974358977,,0,-1,1768944456.0141602
1768944456021.973,1291.5750915750914,,0,-1,1768944456.021973
1768944456029.7852,1281.3186813186812,,0,-1,1768944456.0297852
1768944456037.5977,1273.260073260073,,0,-1,1768944456.0375977
1768944456045.4102,1273.992673992674,,0,-1,1768944456.0454102
1768944456053.223,1272.5274725274724,,0,-1,1768944456.053223
1768944456061.0352,1276.190476190476,,0,-1,1768944456.0610352
1768944456068.8477,1282.7838827838827,,0,-1,1768944456.0688477
1768944456076.6602,1285.7142857142856,,0,-1,1768944456.0766602
1768944456084.473,1291.5750915750914,,0,-1,1768944456.084473
1768944456092.2852,1296.7032967032967,,0,-1,1768944456.0922852
1768944456100.0977,1303.2967032967033,,0,-1,1768944456.1000977
1768944456107.9102,1311.3553113553112,,0,-1,1768944456.1079102
1768944456115.723,1311.3553113553112,,0,-1,1768944456.115723
1768944456123.5352,1309.89010989011,,0,-1,1768944456.1235352
1768944456131.3477,1306.9597069597069,,0,-1,1768944456.1313477
1768944456139.1602,1296.7032967032967,,0,-1,1768944456.1391602
1768944456146.973,1291.5750915750914,,0,-1,1768944456.146973
1768944456154.7852,1284.9816849816848,,0,-1,1768944456.1547852
1768944456162.5977,1277.6556776556777,,0,-1,1768944456.1625977
1768944456170.4102,1275.4578754578754,,0,-1,1768944456.1704102
1768944456178.223,1270.3296703296703,,0,-1,1768944456.178223
1768944456186.0352,1263.7362637362637,,0,-1,1768944456.1860352
1768944456193.8477,1260.805860805861,,0,-1,1768944456.1938477
1768944456201.6602,1259.3406593406592,,0,-1,1768944456.2016602
1768944456209.473,1262.2710622710622,,0,-1,1768944456.209473
1768944456217.2852,1270.3296703296703,,0,-1,1768944456.2172852
1768944456225.0977,1274.7252747252746,,0,-1,1768944456.2250977
1768944456232.9102,1279.8534798534797,,0,-1,1768944456.2329102
1768944456240.723,1282.7838827838827,,0,-1,1768944456.240723
1768944456248.5352,1283.5164835164835,,0,-1,1768944456.2485352
1768944456256.3477,1284.9816849816848,,0,-1,1768944456.2563477
1768944456264.1602,1290.10989010989,,0,-1,1768944456.2641602
1768944456271.973,1289.3772893772891,,0,-1,1768944456.271973
1768944456279.7852,1285.7142857142856,,0,-1,1768944456.2797852
1768944456287.5977,1292.3076923076922,,0,-1,1768944456.2875977
1768944456295.4102,1292.3076923076922,,0,-1,1768944456.2954102
1768944456303.223,1296.7032967032967,,0,-1,1768944456.303223
1768944456311.0352,1301.098901098901,,0,-1,1768944456.3110352
1768944456318.8477,1308.4249084249084,,0,-1,1768944456.3188477
1768944456326.6602,1317.9487179487178,,0,-1,1768944456.3266602
