Shimmer_6815_Timestamp_Unix_CAL,Shimmer_6815_PPG_A13_CAL,Unnamed: 2,inhale,inhale_id,epoch_sec
1768774223225.4028,68.86446886446886,,1,0,1768774223.2254028
1768774223233.215,185.34798534798531,,1,0,1768774223.233215
1768774223241.0278,323.07692307692304,,1,0,1768774223.2410278
1768774223248.8403,465.2014652014652,,1,0,1768774223.2488403
1768774223256.6528,601.4652014652014,,1,0,1768774223.2566528
1768774223264.465,727.4725274725274,,1,0,1768774223.264465
1768774223272.2778,840.2930402930402,,1,0,1768774223.2722778
1768774223280.0903,936.9963369963368,,1,0,1768774223.2800903
1768774223287.9028,1019.0476190476188,,1,0,1768774223.2879028
1768774223295.715,1087.179487179487,,1,0,1768774223.295715
1768774223303.5278,1144.3223443223442,,1,0,1768774223.3035278
1768774223311.3403,1192.6739926739926,,1,0,1768774223.3113403
1768774223319.1528,1232.967032967033,,1,0,1768774223.3191528
1768774223326.965,1267.3992673992673,,1,0,1768774223.326965
1768774223334.7778,1295.970695970696,,1,0,1768774223.3347778
1768774223342.5903,1318.6813186813183,,1,0,1768774223.3425903
1768774223350.4028,1337.7289377289376,,1,0,1768774223.3504028
1768774223358.215,1352.3809523809523,,1,0,1768774223.358215
1768774223366.0278,1361.904761904762,,1,0,1768774223.3660278
1768774223373.8403,1367.032967032967,,1,0,1768774223.3738403
1768774223381.6528,1372.161172161172,,1,0,1768774223.3816528
1768774223389.465,1377.2893772893772,,1,0,1768774223.389465
1768774223397.2778,1381.6849816849815,,1,0,1768774223.3972778
1768774223405.0903,1384.6153846153843,,1,0,1768774223.4050903
1768774223412.9028,1385.3479853479853,,1,0,1768774223.4129028
1768774223420.715,1385.3479853479853,,1,0,1768774223.420715
1768774223428.5278,1386.8131868131868,,1,0,1768774223.4285278
1768774223436.3403,1386.8131868131868,,1,0,1768774223.4363403
1768774223444.1528,1387.5457875457876,,1,0,1768774223.4441528
1768774223451.965,1387.5457875457876,,1,0,1768774223.451965
1768774223459.7778,1388.278388278388,,1,0,1768774223.4597778
1768774223467.5903,1386.8131868131868,,1,0,1768774223.4675903
1768774223475.4028,1386.080586080586,,1,0,1768774223.4754028
1768774223483.215,1387.5457875457876,,1,0,1768774223.483215
1768774223491.0278,1389.7435897435896,,1,0,1768774223.4910278
1768774223498.8403,1393.4065934065934,,1,0,1768774223.4988403
1768774223506.6528,1395.6043956043954,,1,0,1768774223.5066528
1768774223514.465,1397.069597069597,,1,0,1768774223.514465
1768774223522.2778,1398.5347985347985,,1,0,1768774223.5222778
1768774223530.0903,1398.5347985347985,,1,0,1768774223.5300903
1768774223537.9028,1397.069597069597,,1,0,1768774223.5379028
1768774223545.715,1392.6739926739926,,1,0,1768774223.545715
1768774223553.5278,1386.080586080586,,1,0,1768774223.5535278
1768774223561.3403,1379.4871794871794,,1,0,1768774223.5613403
1768774223569.1528,1373.6263736263736,,1,0,1768774223.5691528
1768774223576.965,1368.4981684981683,,1,0,1768774223.576965
1768774223584.7778,1363.3699633699632,,1,0,1768774223.5847778
1768774223592.5903,1361.1721611721612,,1,0,1768774223.5925903
1768774223600.4028,1359.7069597069597,,1,0,1768774223.6004028
1768774223608.215,1358.974358974359,,1,0,1768774223.608215
1768774223616.0278,1357.5091575091574,,1,0,1768774223.6160278
1768774223623.8403,1357.5091575091574,,1,0,1768774223.6238403
1768774223631.6528,1359.7069597069597,,1,0,1768774223.6316528
1768774223639.465,1362.6373626373625,,1,0,1768774223.639465
1768774223647.2778,1368.4981684981683,,1,0,1768774223.6472778
1768774223655.0903,1372.8937728937728,,1,0,1768774223.6550903
1768774223662.9028,1373.6263736263736,,1,0,1768774223.6629028
1768774223670.715,1373.6263736263736,,1,0,1768774223.670715
1768774223678.5278,1372.161172161172,,1,0,1768774223.6785278
1768774223686.3403,1369.9633699633698,,1,0,1768774223.6863403
1768774223694.1528,1369.9633699633698,,1,0,1768774223.6941528
1768774223701.965,1369.230769230769,,1,0,1768774223.701965
1768774223709.7778,1365.5677655677655,,1,0,1768774223.7097778
1768774223717.5903,1358.974358974359,,1,0,1768774223.7175903
1768774223725.4028,1350.18315018315,,1,0,1768774223.7254028
1768774223733.215,1341.3919413919414,,1,0,1768774223.733215
1768774223741.0278,1332.6007326007325,,1,0,1768774223.7410278
1768774223748.8403,1324.5421245421244,,1,0,1768774223.7488403
1768774223756.6528,1322.3443223443223,,1,0,1768774223.7566528
1768774223764.465,1331.135531135531,,1,0,1768774223.764465
1768774223772.2778,1345.054945054945,,1,0,1768774223.7722778
1768774223780.0903,1362.6373626373625,,1,0,1768774223.7800903
1768774223787.9028,1382.4175824175825,,1,0,1768774223.7879028
1768774223795.715,1405.8608058608058,,1,0,1768774223.795715
1768774223803.5278,1431.5018315018317,,1,0,1768774223.8035278
1768774223811.3403,1456.4102564102564,,1,0,1768774223.8113403
1768774223819.1528,1479.8534798534797,,1,0,1768774223.8191528
1768774223826.965,1498.9010989010987,,1,0,1768774223.826965
1768774223834.7778,1515.018315018315,,1,0,1768774223.8347778
1768774223842.5903,1531.135531135531,,1,0,1768774223.8425903
1768774223850.4028,1549.4505494505493,,1,0,1768774223.8504028
1768774223858.215,1563.3699633699632,,1,0,1768774223.858215
1768774223866.0278,1574.3589743589744,,1,0,1768774223.8660278
1768774223873.8403,1583.150183150183,,1,0,1768774223.8738403
1768774223881.6528,1590.4761904761904,,1,0,1768774223.8816528
1768774223889.465,1595.6043956043954,,1,0,1768774223.889465
1768774223897.2778,1600.7326007326003,,1,0,1768774223.8972778
1768774223905.0903,1603.6630036630036,,1,0,1768774223.9050903
1768774223912.9028,1602.9304029304028,,1,0,1768774223.9129028
1768774223920.715,1602.197802197802,,1,0,1768774223.920715
1768774223928.5278,1602.197802197802,,1,0,1768774223.9285278
1768774223936.3403,1604.3956043956043,,1,0,1768774223.9363403
1768774223944.1528,1602.197802197802,,1,0,1768774223.9441528
1768774223951.965,1602.197802197802,,1,0,1768774223.951965
1768774223959.7778,1602.9304029304028,,1,0,1768774223.9597778
1768774223967.5903,1605.8608058608058,,1,0,1768774223.9675903
1768774223975.4028,1605.8608058608058,,1,0,1768774223.9754028
1768774223983.215,1606.5934065934066,,1,0,1768774223.983215
1768774223991.0278,1610.989010989011,,1,0,1768774223.9910278
1768774223998.8403,1610.989010989011,,1,0,1768774223.9988403
1768774224006.6528,1610.989010989011,,1,0,1768774224.0066528
1768774224014.465,1609.5238095238094,,1,0,1768774224.014465
1768774224022.2778,1608.058608058608,,1,0,1768774224.0222778
1768774224030.0903,1602.9304029304028,,1,0,1768774224.0300903
1768774224037.9028,1595.6043956043954,,1,0,1768774224.0379028
1768774224045.715,1586.080586080586,,1,0,1768774224.045715
1768774224053.5278,1577.2893772893772,,1,0,1768774224.0535278
1768774224061.3403,1572.161172161172,,1,0,1768774224.0613403
1768774224069.1528,1566.3003663003662,,1,0,1768774224.0691528
1768774224076.965,1556.043956043956,,1,0,1768774224.076965
1768774224084.7778,1550.18315018315,,1,0,1768774224.0847778
1768774224092.5903,1542.857142857143,,1,0,1768774224.0925903
1768774224100.4028,1536.263736263736,,1,0,1768774224.1004028
1768774224108.215,1529.6703296703297,,1,0,1768774224.108215
1768774224116.0278,1525.2747252747251,,1,0,1768774224.1160278
1768774224123.8403,1523.8095238095236,,1,0,1768774224.1238403
1768774224131.6528,1523.8095238095236,,1,0,1768774224.1316528
1768774224139.465,1526.007326007326,,1,0,1768774224.139465
1768774224147.2778,1527.4725274725274,,1,0,1768774224.1472778
1768774224155.0903,1526.739926739927,,1,0,1768774224.1550903
1768774224162.9028,1526.739926739927,,1,0,1768774224.1629028
1768774224170.715,1526.007326007326,,1,0,1768774224.170715
1768774224178.5278,1522.3443223443223,,1,0,1768774224.1785278
1768774224186.3403,1520.8791208791208,,1,0,1768774224.1863403
1768774224194.1528,1515.018315018315,,1,0,1768774224.1941528
1768774224201.965,1506.227106227106,,1,0,1768774224.201965
1768774224209.7778,1497.4358974358972,,1,0,1768774224.2097778
1768774224217.5903,1490.10989010989,,1,0,1768774224.2175903
1768774224225.4028,1484.9816849816848,,1,0,1768774224.2254028
1768774224233.215,1480.5860805860805,,1,0,1768774224.233215
1768774224241.0278,1479.120879120879,,1,0,1768774224.2410278
1768774224248.8403,1482.7838827838827,,1,0,1768774224.2488403
1768774224256.6528,1485.7142857142856,,1,0,1768774224.2566528
1768774224264.465,1488.6446886446886,,1,0,1768774224.264465
1768774224272.2778,1492.3076923076922,,1,0,1768774224.2722778
1768774224280.0903,1496.7032967032967,,1,0,1768774224.2800903
1768774224287.9028,1498.168498168498,,1,0,1768774224.2879028
1768774224295.715,1497.4358974358972,,1,0,1768774224.295715
1768774224303.5278,1493.040293040293,,1,0,1768774224.3035278
1768774224311.3403,1489.3772893772891,,1,0,1768774224.3113403
1768774224319.1528,1485.7142857142856,,1,0,1768774224.3191528
1768774224326.965,1484.2490842490845,,1,0,1768774224.326965
1768774224334.7778,1479.8534798534797,,1,0,1768774224.3347778
1768774224342.5903,1471.062271062271,,1,0,1768774224.3425903
1768774224350.4028,1464.4688644688645,,1,0,1768774224.3504028
1768774224358.215,1457.875457875458,,1,0,1768774224.358215
1768774224366.0278,1446.8864468864467,,1,0,1768774224.3660278
1768774224373.8403,1436.6300366300366,,1,0,1768774224.3738403
1768774224381.6528,1429.3040293040292,,1,0,1768774224.3816528
1768774224389.465,1419.7802197802198,,1,0,1768774224.389465
1768774224397.2778,1412.4542124542124,,1,0,1768774224.3972778
1768774224405.0903,1411.7216117216117,,1,0,1768774224.4050903
1768774224412.9028,1410.989010989011,,1,0,1768774224.4129028
1768774224420.715,1410.989010989011,,1,0,1768774224.420715
1768774224428.5278,1416.117216117216,,1,0,1768774224.4285278
1768774224436.3403,1419.7802197802198,,1,0,1768774224.4363403
1768774224444.1528,1420.5128205128203,,1,0,1768774224.4441528
1768774224451.965,1424.175824175824,,1,0,1768774224.451965
1768774224459.7778,1421.245421245421,,1,0,1768774224.4597778
1768774224467.5903,1415.3846153846152,,1,0,1768774224.4675903
1768774224475.4028,1406.5934065934066,,1,0,1768774224.4754028
1768774224483.215,1394.8717948717947,,1,0,1768774224.483215
1768774224491.0278,1385.3479853479853,,1,0,1768774224.4910278
1768774224498.8403,1374.3589743589744,,1,0,1768774224.4988403
1768774224506.6528,1366.3003663003662,,1,0,1768774224.5066528
1768774224514.465,1361.904761904762,,1,0,1768774224.514465
1768774224522.2778,1355.311355311355,,1,0,1768774224.5222778
1768774224530.0903,1356.043956043956,,1,0,1768774224.5300903
1768774224537.9028,1357.5091575091574,,1,0,1768774224.5379028
1768774224545.715,1372.8937728937728,,1,0,1768774224.545715
1768774224553.5278,1390.4761904761904,,1,0,1768774224.5535278
1768774224561.3403,1419.047619047619,,1,0,1768774224.5613403
1768774224569.1528,1446.153846153846,,1,0,1768774224.5691528
1768774224576.965,1471.7948717948716,,1,0,1768774224.576965
1768774224584.7778,1501.098901098901,,1,0,1768774224.5847778
1768774224592.5903,1526.739926739927,,1,0,1768774224.5925903
1768774224600.4028,1551.6483516483515,,1,0,1768774224.6004028
1768774224608.215,1567.7655677655678,,1,0,1768774224.608215
1768774224616.0278,1585.3479853479853,,1,0,1768774224.6160278
1768774224623.8403,1599.2673992673992,,1,0,1768774224.6238403
1768774224631.6528,1611.7216117216117,,1,0,1768774224.6316528
1768774224639.465,1621.9780219780218,,1,0,1768774224.639465
1768774224647.2778,1632.2344322344322,,1,0,1768774224.6472778
1768774224655.0903,1634.4322344322345,,1,0,1768774224.6550903
1768774224662.9028,1636.6300366300366,,1,0,1768774224.6629028
1768774224670.715,1641.0256410256409,,1,0,1768774224.670715
1768774224678.5278,1639.5604395604394,,1,0,1768774224.6785278
1768774224686.3403,1643.956043956044,,1,0,1768774224.6863403
1768774224694.1528,1643.2234432234432,,1,0,1768774224.6941528
1768774224701.965,1645.4212454212452,,1,0,1768774224.701965
1768774224709.7778,1641.7582417582416,,1,0,1768774224.7097778
1768774224717.5903,1641.0256410256409,,1,0,1768774224.7175903
1768774224725.4028,1638.8278388278386,,1,0,1768774224.7254028
1768774224733.215,1634.4322344322345,,1,0,1768774224.733215
1768774224741.0278,1629.3040293040292,,1,0,1768774224.7410278
1768774224748.8403,1624.175824175824,,1,0,1768774224.7488403
1768774224756.6528,1619.047619047619,,1,0,1768774224.7566528
1768774224764.465,1611.7216117216117,,1,0,1768774224.764465
1768774224772.2778,1607.3260073260071,,1,0,1768774224.7722778
1768774224780.0903,1594.8717948717947,,1,0,1768774224.7800903
1768774224787.9028,1582.4175824175825,,1,0,1768774224.7879028
1768774224795.715,1565.5677655677655,,1,0,1768774224.795715
1768774224803.5278,1550.9157509157508,,1,0,1768774224.8035278
1768774224811.3403,1539.92673992674,,1,0,1768774224.8113403
1768774224819.1528,1534.065934065934,,1,0,1768774224.8191528
1768774224826.965,1531.8681318681315,,1,0,1768774224.826965
1768774224834.7778,1530.4029304029302,,1,0,1768774224.8347778
1768774224842.5903,1536.263736263736,,1,0,1768774224.8425903
1768774224850.4028,1536.263736263736,,1,0,1768774224.8504028
1768774224858.215,1536.263736263736,,1,0,1768774224.858215
1768774224866.0278,1531.135531135531,,1,0,1768774224.8660278
1768774224873.8403,1522.3443223443223,,1,0,1768774224.8738403
1768774224881.6528,1515.7509157509155,,1,0,1768774224.8816528
1768774224889.465,1504.0293040293038,,1,0,1768774224.889465
1768774224897.2778,1496.7032967032967,,1,0,1768774224.8972778
1768774224905.0903,1489.3772893772891,,1,0,1768774224.9050903
1768774224912.9028,1481.3186813186812,,1,0,1768774224.9129028
1768774224920.715,1479.8534798534797,,1,0,1768774224.920715
1768774224928.5278,1482.051282051282,,1,0,1768774224.9285278
1768774224936.3403,1484.9816849816848,,1,0,1768774224.9363403
1768774224944.1528,1491.5750915750914,,1,0,1768774224.9441528
1768774224951.965,1493.040293040293,,1,0,1768774224.951965
1768774224959.7778,1495.970695970696,,1,0,1768774224.9597778
1768774224967.5903,1493.040293040293,,1,0,1768774224.9675903
1768774224975.4028,1494.5054945054944,,1,0,1768774224.9754028
1768774224983.215,1491.5750915750914,,1,0,1768774224.983215
1768774224991.0278,1495.2380952380952,,1,0,1768774224.9910278
1768774224998.8403,1494.5054945054944,,1,0,1768774224.9988403
1768774225006.6528,1496.7032967032967,,1,0,1768774225.0066528
1768774225014.465,1492.3076923076922,,1,0,1768774225.014465
1768774225022.2778,1482.051282051282,,1,0,1768774225.0222778
1768774225030.0903,1471.062271062271,,1,0,1768774225.0300903
1768774225037.9028,1457.142857142857,,1,0,1768774225.0379028
1768774225045.715,1449.8168498168498,,1,0,1768774225.045715
1768774225053.5278,1441.7582417582416,,1,0,1768774225.0535278
1768774225061.3403,1433.6996336996335,,1,0,1768774225.0613403
1768774225069.1528,1432.9670329670328,,1,0,1768774225.0691528
1768774225076.965,1428.5714285714284,,1,0,1768774225.076965
1768774225084.7778,1430.7692307692307,,1,0,1768774225.0847778
1768774225092.5903,1433.6996336996335,,1,0,1768774225.0925903
1768774225100.4028,1435.8974358974358,,1,0,1768774225.1004028
1768774225108.215,1434.4322344322345,,1,0,1768774225.108215
1768774225116.0278,1423.4432234432234,,1,0,1768774225.1160278
1768774225123.8403,1416.117216117216,,1,0,1768774225.1238403
1768774225131.6528,1412.4542124542124,,1,0,1768774225.1316528
1768774225139.465,1413.1868131868132,,0,-1,1768774225.139465
1768774225147.2778,1419.7802197802198,,0,-1,1768774225.1472778
1768774225155.0903,1423.4432234432234,,0,-1,1768774225.1550903
1768774225162.9028,1423.4432234432234,,0,-1,1768774225.1629028
1768774225170.715,1424.9084249084249,,0,-1,1768774225.170715
1768774225178.5278,1421.9780219780218,,0,-1,1768774225.1785278
1768774225186.3403,1421.245421245421,,0,-1,1768774225.1863403
1768774225194.1528,1414.6520146520145,,0,-1,1768774225.1941528
1768774225201.965,1409.5238095238094,,0,-1,1768774225.201965
1768774225209.7778,1407.3260073260071,,0,-1,1768774225.2097778
1768774225217.5903,1402.197802197802,,0,-1,1768774225.2175903
1768774225225.4028,1391.2087912087911,,0,-1,1768774225.2254028
1768774225233.215,1380.2197802197802,,0,-1,1768774225.233215
1768774225241.0278,1366.3003663003662,,0,-1,1768774225.2410278
1768774225248.8403,1351.6483516483515,,0,-1,1768774225.2488403
1768774225256.6528,1342.857142857143,,0,-1,1768774225.2566528
1768774225264.465,1339.194139194139,,0,-1,1768774225.264465
1768774225272.2778,1334.7985347985348,,0,-1,1768774225.2722778
1768774225280.0903,1331.8681318681315,,0,-1,1768774225.2800903
1768774225287.9028,1331.8681318681315,,0,-1,1768774225.2879028
1768774225295.715,1327.4725274725274,,0,-1,1768774225.295715
1768774225303.5278,1324.5421245421244,,0,-1,1768774225.3035278
1768774225311.3403,1324.5421245421244,,0,-1,1768774225.3113403
1768774225319.1528,1323.8095238095236,,0,-1,1768774225.3191528
1768774225326.965,1325.2747252747251,,0,-1,1768774225.326965
1768774225334.7778,1321.6117216117216,,0,-1,1768774225.3347778
1768774225342.5903,1315.018315018315,,0,-1,1768774225.3425903
1768774225350.4028,1312.087912087912,,0,-1,1768774225.3504028
1768774225358.215,1309.89010989011,,0,-1,1768774225.358215
1768774225366.0278,1320.8791208791208,,0,-1,1768774225.3660278
1768774225373.8403,1338.4615384615383,,0,-1,1768774225.3738403
1768774225381.6528,1364.102564102564,,0,-1,1768774225.3816528
1768774225389.465,1393.4065934065934,,0,-1,1768774225.389465
1768774225397.2778,1415.3846153846152,,0,-1,1768774225.3972778
1768774225405.0903,1438.095238095238,,0,-1,1768774225.4050903
1768774225412.9028,1458.6080586080584,,0,-1,1768774225.4129028
1768774225420.715,1476.923076923077,,0,-1,1768774225.420715
1768774225428.5278,1499.6336996336995,,0,-1,1768774225.4285278
1768774225436.3403,1526.739926739927,,0,-1,1768774225.4363403
1768774225444.1528,1548.7179487179485,,0,-1,1768774225.4441528
1768774225451.965,1571.428571428571,,0,-1,1768774225.451965
1768774225459.7778,1591.2087912087911,,0,-1,1768774225.4597778
1768774225467.5903,1607.3260073260071,,0,-1,1768774225.4675903
1768774225475.4028,1623.4432234432234,,0,-1,1768774225.4754028
1768774225483.215,1630.7692307692307,,0,-1,1768774225.483215
1768774225491.0278,1632.9670329670328,,0,-1,1768774225.4910278
1768774225498.8403,1636.6300366300366,,0,-1,1768774225.4988403
1768774225506.6528,1630.7692307692307,,0,-1,1768774225.5066528
1768774225514.465,1626.3736263736262,,0,-1,1768774225.514465
1768774225522.2778,1613.9194139194135,,0,-1,1768774225.5222778
1768774225530.0903,1605.8608058608058,,0,-1,1768774225.5300903
1768774225537.9028,1598.5347985347985,,0,-1,1768774225.5379028
1768774225545.715,1597.069597069597,,0,-1,1768774225.545715
1768774225553.5278,1598.5347985347985,,0,-1,1768774225.5535278
1768774225561.3403,1597.069597069597,,0,-1,1768774225.5613403
1768774225569.1528,1602.197802197802,,0,-1,1768774225.5691528
1768774225576.965,1601.4652014652013,,0,-1,1768774225.576965
1768774225584.7778,1597.8021978021975,,0,-1,1768774225.5847778
1768774225592.5903,1592.6739926739926,,0,-1,1768774225.5925903
1768774225600.4028,1583.8827838827838,,0,-1,1768774225.6004028
1768774225608.215,1569.230769230769,,0,-1,1768774225.608215
1768774225616.0278,1556.043956043956,,0,-1,1768774225.6160278
1768774225623.8403,1541.3919413919414,,0,-1,1768774225.6238403
1768774225631.6528,1526.007326007326,,0,-1,1768774225.6316528
1768774225639.465,1515.7509157509155,,0,-1,1768774225.639465
1768774225647.2778,1504.7619047619046,,0,-1,1768774225.6472778
1768774225655.0903,1493.7728937728937,,0,-1,1768774225.6550903
1768774225662.9028,1481.3186813186812,,0,-1,1768774225.6629028
1768774225670.715,1471.062271062271,,0,-1,1768774225.670715
1768774225678.5278,1460.07326007326,,0,-1,1768774225.6785278
1768774225686.3403,1449.084249084249,,0,-1,1768774225.6863403
1768774225694.1528,1445.4212454212454,,0,-1,1768774225.6941528
1768774225701.965,1441.7582417582416,,0,-1,1768774225.701965
1768774225709.7778,1438.8278388278388,,0,-1,1768774225.7097778
1768774225717.5903,1439.5604395604394,,0,-1,1768774225.7175903
1768774225725.4028,1437.362637362637,,0,-1,1768774225.7254028
1768774225733.215,1435.164835164835,,0,-1,1768774225.733215
1768774225741.0278,1438.8278388278388,,0,-1,1768774225.7410278
1768774225748.8403,1438.8278388278388,,0,-1,1768774225.7488403
1768774225756.6528,1438.8278388278388,,0,-1,1768774225.7566528
1768774225764.465,1438.8278388278388,,0,-1,1768774225.764465
1768774225772.2778,1432.9670329670328,,0,-1,1768774225.7722778
1768774225780.0903,1428.5714285714284,,0,-1,1768774225.7800903
1768774225787.9028,1423.4432234432234,,0,-1,1768774225.7879028
1768774225795.715,1419.047619047619,,0,-1,1768774225.795715
1768774225803.5278,1421.245421245421,,0,-1,1768774225.8035278
1768774225811.3403,1427.106227106227,,0,-1,1768774225.8113403
1768774225819.1528,1429.3040293040292,,0,-1,1768774225.8191528
1768774225826.965,1430.03663003663,,0,-1,1768774225.826965
1768774225834.7778,1428.5714285714284,,0,-1,1768774225.8347778
1768774225842.5903,1424.175824175824,,0,-1,1768774225.8425903
1768774225850.4028,1418.3150183150185,,0,-1,1768774225.8504028
1768774225858.215,1416.117216117216,,0,-1,1768774225.858215
1768774225866.0278,1416.117216117216,,0,-1,1768774225.8660278
1768774225873.8403,1413.1868131868132,,0,-1,1768774225.8738403
1768774225881.6528,1410.989010989011,,0,-1,1768774225.8816528
1768774225889.465,1412.4542124542124,,0,-1,1768774225.889465
1768774225897.2778,1413.9194139194135,,0,-1,1768774225.8972778
1768774225905.0903,1412.4542124542124,,0,-1,1768774225.9050903
1768774225912.9028,1409.5238095238094,,0,-1,1768774225.9129028
1768774225920.715,1407.3260073260071,,0,-1,1768774225.920715
1768774225928.5278,1404.3956043956043,,0,-1,1768774225.9285278
1768774225936.3403,1397.069597069597,,0,-1,1768774225.9363403
1768774225944.1528,1390.4761904761904,,0,-1,1768774225.9441528
1768774225951.965,1386.080586080586,,0,-1,1768774225.951965
1768774225959.7778,1383.150183150183,,0,-1,1768774225.9597778
1768774225967.5903,1378.021978021978,,0,-1,1768774225.9675903
1768774225975.4028,1369.9633699633698,,0,-1,1768774225.9754028
1768774225983.215,1358.974358974359,,0,-1,1768774225.983215
1768774225991.0278,1347.2527472527472,,0,-1,1768774225.9910278
1768774225998.8403,1337.7289377289376,,0,-1,1768774225.9988403
1768774226006.6528,1326.007326007326,,0,-1,1768774226.0066528
1768774226014.465,1315.018315018315,,0,-1,1768774226.014465
1768774226022.2778,1306.227106227106,,0,-1,1768774226.0222778
1768774226030.0903,1300.3663003663005,,0,-1,1768774226.0300903
1768774226037.9028,1302.5641025641023,,0,-1,1768774226.0379028
1768774226045.715,1309.89010989011,,0,-1,1768774226.045715
1768774226053.5278,1313.5531135531137,,0,-1,1768774226.0535278
1768774226061.3403,1315.7509157509155,,0,-1,1768774226.0613403
1768774226069.1528,1315.7509157509155,,0,-1,1768774226.0691528
1768774226076.965,1312.8205128205127,,0,-1,1768774226.076965
1768774226084.7778,1309.1575091575091,,0,-1,1768774226.0847778
1768774226092.5903,1307.6923076923076,,0,-1,1768774226.0925903
1768774226100.4028,1306.227106227106,,0,-1,1768774226.1004028
1768774226108.215,1299.6336996336995,,0,-1,1768774226.108215
1768774226116.0278,1292.3076923076922,,0,-1,1768774226.1160278
1768774226123.8403,1284.2490842490845,,0,-1,1768774226.1238403
1768774226131.6528,1279.120879120879,,0,-1,1768774226.1316528
1768774226139.465,1276.923076923077,,0,-1,1768774226.139465
1768774226147.2778,1273.260073260073,,0,-1,1768774226.1472778
1768774226155.0903,1271.062271062271,,0,-1,1768774226.1550903
1768774226162.9028,1273.992673992674,,0,-1,1768774226.1629028
1768774226170.715,1279.120879120879,,0,-1,1768774226.170715
1768774226178.5278,1286.4468864468863,,0,-1,1768774226.1785278
1768774226186.3403,1297.4358974358977,,0,-1,1768774226.1863403
1768774226194.1528,1307.6923076923076,,0,-1,1768774226.1941528
1768774226201.965,1312.8205128205127,,0,-1,1768774226.201965
1768774226209.7778,1316.4835164835165,,0,-1,1768774226.2097778
1768774226217.5903,1318.6813186813183,,0,-1,1768774226.2175903
1768774226225.4028,1320.14652014652,,0,-1,1768774226.2254028
1768774226233.215,1317.216117216117,,0,-1,1768774226.233215
1768774226241.0278,1312.087912087912,,0,-1,1768774226.2410278
1768774226248.8403,1301.098901098901,,0,-1,1768774226.2488403
1768774226256.6528,1290.10989010989,,0,-1,1768774226.2566528
1768774226264.465,1282.051282051282,,0,-1,1768774226.264465
1768774226272.2778,1279.120879120879,,0,-1,1768774226.2722778
1768774226280.0903,1276.190476190476,,0,-1,1768774226.2800903
1768774226287.9028,1273.260073260073,,0,-1,1768774226.2879028
1768774226295.715,1270.3296703296703,,0,-1,1768774226.295715
1768774226303.5278,1268.131868131868,,0,-1,1768774226.3035278
1768774226311.3403,1266.6666666666663,,0,-1,1768774226.3113403
1768774226319.1528,1264.4688644688645,,0,-1,1768774226.3191528
1768774226326.965,1260.07326007326,,0,-1,1768774226.326965
1768774226334.7778,1255.6776556776556,,0,-1,1768774226.3347778
1768774226342.5903,1252.7472527472526,,0,-1,1768774226.3425903
1768774226350.4028,1251.2820512820513,,0,-1,1768774226.3504028
1768774226358.215,1247.6190476190477,,0,-1,1768774226.358215
1768774226366.0278,1243.2234432234432,,0,-1,1768774226.3660278
1768774226373.8403,1241.7582417582416,,0,-1,1768774226.3738403
1768774226381.6528,1239.5604395604396,,0,-1,1768774226.3816528
1768774226389.465,1237.362637362637,,0,-1,1768774226.389465
1768774226397.2778,1232.2344322344322,,0,-1,1768774226.3972778
1768774226405.0903,1226.3736263736264,,0,-1,1768774226.4050903
1768774226412.9028,1221.9780219780218,,0,-1,1768774226.4129028
1768774226420.715,1220.5128205128203,,0,-1,1768774226.420715
1768774226428.5278,1222.7106227106226,,0,-1,1768774226.4285278
1768774226436.3403,1228.5714285714284,,0,-1,1768774226.4363403
1768774226444.1528,1237.362637362637,,0,-1,1768774226.4441528
1768774226451.965,1249.084249084249,,0,-1,1768774226.451965
1768774226459.7778,1261.5384615384614,,0,-1,1768774226.4597778
1768774226467.5903,1276.190476190476,,0,-1,1768774226.4675903
1768774226475.4028,1294.5054945054944,,0,-1,1768774226.4754028
1768774226483.215,1316.4835164835165,,0,-1,1768774226.483215
1768774226491.0278,1339.92673992674,,0,-1,1768774226.4910278
1768774226498.8403,1362.6373626373625,,0,-1,1768774226.4988403
1768774226506.6528,1383.8827838827838,,0,-1,1768774226.5066528
1768774226514.465,1403.6630036630036,,0,-1,1768774226.514465
1768774226522.2778,1421.245421245421,,0,-1,1768774226.5222778
1768774226530.0903,1436.6300366300366,,0,-1,1768774226.5300903
1768774226537.9028,1452.014652014652,,0,-1,1768774226.5379028
1768774226545.715,1467.3992673992673,,0,-1,1768774226.545715
1768774226553.5278,1482.7838827838827,,0,-1,1768774226.5535278
1768774226561.3403,1494.5054945054944,,0,-1,1768774226.5613403
1768774226569.1528,1502.5641025641023,,0,-1,1768774226.5691528
1768774226576.965,1505.4945054945051,,0,-1,1768774226.576965
1768774226584.7778,1508.4249084249084,,0,-1,1768774226.5847778
1768774226592.5903,1511.3553113553112,,0,-1,1768774226.5925903
1768774226600.4028,1512.8205128205127,,0,-1,1768774226.6004028
1768774226608.215,1511.3553113553112,,0,-1,1768774226.608215
1768774226616.0278,1506.9597069597069,,0,-1,1768774226.6160278
1768774226623.8403,1500.3663003663005,,0,-1,1768774226.6238403
1768774226631.6528,1494.5054945054944,,0,-1,1768774226.6316528
1768774226639.465,1487.179487179487,,0,-1,1768774226.639465
1768774226647.2778,1476.190476190476,,0,-1,1768774226.6472778
1768774226655.0903,1468.131868131868,,0,-1,1768774226.6550903
1768774226662.9028,1463.7362637362637,,0,-1,1768774226.6629028
1768774226670.715,1457.875457875458,,0,-1,1768774226.670715
1768774226678.5278,1451.2820512820513,,0,-1,1768774226.6785278
1768774226686.3403,1441.7582417582416,,0,-1,1768774226.6863403
1768774226694.1528,1431.5018315018317,,0,-1,1768774226.6941528
1768774226701.965,1424.175824175824,,0,-1,1768774226.701965
1768774226709.7778,1416.8498168498168,,0,-1,1768774226.7097778
1768774226717.5903,1413.9194139194135,,0,-1,1768774226.7175903
1768774226725.4028,1410.989010989011,,0,-1,1768774226.7254028
1768774226733.215,1404.3956043956043,,0,-1,1768774226.733215
1768774226741.0278,1397.8021978021975,,0,-1,1768774226.7410278
1768774226748.8403,1392.6739926739926,,0,-1,1768774226.7488403
1768774226756.6528,1386.8131868131868,,0,-1,1768774226.7566528
1768774226764.465,1379.4871794871794,,0,-1,1768774226.764465
1768774226772.2778,1369.230769230769,,0,-1,1768774226.7722778
1768774226780.0903,1358.974358974359,,0,-1,1768774226.7800903
1768774226787.9028,1347.985347985348,,0,-1,1768774226.7879028
1768774226795.715,1339.92673992674,,0,-1,1768774226.795715
1768774226803.5278,1334.7985347985348,,0,-1,1768774226.8035278
1768774226811.3403,1331.8681318681315,,0,-1,1768774226.8113403
1768774226819.1528,1332.6007326007325,,0,-1,1768774226.8191528
1768774226826.965,1334.065934065934,,0,-1,1768774226.826965
1768774226834.7778,1336.263736263736,,0,-1,1768774226.8347778
1768774226842.5903,1336.263736263736,,0,-1,1768774226.8425903
1768774226850.4028,1336.9963369963368,,0,-1,1768774226.8504028
1768774226858.215,1340.6593406593406,,0,-1,1768774226.858215
1768774226866.0278,1345.054945054945,,0,-1,1768774226.8660278
1768774226873.8403,1350.9157509157508,,0,-1,1768774226.8738403
1768774226881.6528,1354.5787545787546,,0,-1,1768774226.8816528
1768774226889.465,1358.974358974359,,0,-1,1768774226.889465
1768774226897.2778,1361.904761904762,,0,-1,1768774226.8972778
1768774226905.0903,1361.1721611721612,,0,-1,1768774226.9050903
1768774226912.9028,1356.043956043956,,0,-1,1768774226.9129028
1768774226920.715,1350.18315018315,,0,-1,1768774226.920715
1768774226928.5278,1343.5897435897434,,0,-1,1768774226.9285278
1768774226936.3403,1333.3333333333333,,0,-1,1768774226.9363403
1768774226944.1528,1323.076923076923,,0,-1,1768774226.9441528
1768774226951.965,1314.2857142857142,,0,-1,1768774226.951965
1768774226959.7778,1308.4249084249084,,0,-1,1768774226.9597778
1768774226967.5903,1303.2967032967033,,0,-1,1768774226.9675903
1768774226975.4028,1297.4358974358977,,0,-1,1768774226.9754028
1768774226983.215,1293.040293040293,,0,-1,1768774226.983215
1768774226991.0278,1290.8424908424909,,0,-1,1768774226.9910278
1768774226998.8403,1288.6446886446886,,0,-1,1768774226.9988403
1768774227006.6528,1285.7142857142856,,0,-1,1768774227.0066528
1768774227014.465,1286.4468864468863,,0,-1,1768774227.014465
1768774227022.2778,1289.3772893772891,,0,-1,1768774227.0222778
1768774227030.0903,1291.5750915750914,,0,-1,1768774227.0300903
1768774227037.9028,1296.7032967032967,,0,-1,1768774227.0379028
1768774227045.715,1299.6336996336995,,0,-1,1768774227.045715
1768774227053.5278,1298.9010989010987,,0,-1,1768774227.0535278
1768774227061.3403,1294.5054945054944,,0,-1,1768774227.0613403
1768774227069.1528,1290.10989010989,,0,-1,1768774227.0691528
1768774227076.965,1284.9816849816848,,0,-1,1768774227.076965
1768774227084.7778,1281.3186813186812,,0,-1,1768774227.0847778
1768774227092.5903,1283.5164835164835,,0,-1,1768774227.0925903
1768774227100.4028,1288.6446886446886,,0,-1,1768774227.1004028
1768774227108.215,1293.7728937728937,,0,-1,1768774227.108215
1768774227116.0278,1299.6336996336995,,0,-1,1768774227.1160278
1768774227123.8403,1303.2967032967033,,0,-1,1768774227.1238403
1768774227131.6528,1305.4945054945051,,0,-1,1768774227.1316528
1768774227139.465,1300.3663003663005,,0,-1,1768774227.139465
1768774227147.2778,1298.168498168498,,0,-1,1768774227.1472778
1768774227155.0903,1292.3076923076922,,0,-1,1768774227.1550903
1768774227162.9028,1291.5750915750914,,0,-1,1768774227.1629028
1768774227170.715,1290.8424908424909,,0,-1,1768774227.170715
1768774227178.5278,1289.3772893772891,,0,-1,1768774227.1785278
1768774227186.3403,1285.7142857142856,,0,-1,1768774227.1863403
1768774227194.1528,1283.5164835164835,,0,-1,1768774227.1941528
1768774227201.965,1282.7838827838827,,0,-1,1768774227.201965
1768774227209.7778,1282.7838827838827,,0,-1,1768774227.2097778
1768774227217.5903,1283.5164835164835,,0,-1,1768774227.2175903
1768774227225.4028,1278.3882783882782,,0,-1,1768774227.2254028
1768774227233.215,1272.5274725274724,,0,-1,1768774227.233215
1768774227241.0278,1269.5970695970695,,0,-1,1768774227.2410278
1768774227248.8403,1265.9340659340658,,0,-1,1768774227.2488403
1768774227256.6528,1263.003663003663,,0,-1,1768774227.2566528
1768774227264.465,1263.003663003663,,0,-1,1768774227.264465
1768774227272.2778,1260.07326007326,,0,-1,1768774227.2722778
1768774227280.0903,1252.7472527472526,,0,-1,1768774227.2800903
1768774227287.9028,1246.153846153846,,0,-1,1768774227.2879028
1768774227295.715,1244.688644688645,,0,-1,1768774227.295715
1768774227303.5278,1246.8864468864467,,0,-1,1768774227.3035278
1768774227311.3403,1246.153846153846,,0,-1,1768774227.3113403
1768774227319.1528,1247.6190476190477,,0,-1,1768774227.3191528
1768774227326.965,1246.153846153846,,0,-1,1768774227.326965
1768774227334.7778,1250.5494505494505,,0,-1,1768774227.3347778
1768774227342.5903,1254.212454212454,,0,-1,1768774227.3425903
1768774227350.4028,1262.2710622710622,,0,-1,1768774227.3504028
1768774227358.215,1263.7362637362637,,0,-1,1768774227.358215
1768774227366.0278,1263.003663003663,,0,-1,1768774227.3660278
1768774227373.8403,1255.6776556776556,,0,-1,1768774227.3738403
1768774227381.6528,1254.212454212454,,0,-1,1768774227.3816528
1768774227389.465,1249.8168498168498,,0,-1,1768774227.389465
1768774227397.2778,1252.014652014652,,0,-1,1768774227.3972778
1768774227405.0903,1252.7472527472526,,0,-1,1768774227.4050903
1768774227412.9028,1251.2820512820513,,0,-1,1768774227.4129028
1768774227420.715,1249.8168498168498,,0,-1,1768774227.420715
1768774227428.5278,1248.3516483516482,,0,-1,1768774227.4285278
1768774227436.3403,1243.2234432234432,,0,-1,1768774227.4363403
1768774227444.1528,1235.8974358974358,,0,-1,1768774227.4441528
1768774227451.965,1231.5018315018317,,0,-1,1768774227.451965
1768774227459.7778,1227.8388278388277,,0,-1,1768774227.4597778
1768774227467.5903,1225.6410256410256,,0,-1,1768774227.4675903
1768774227475.4028,1223.4432234432234,,0,-1,1768774227.4754028
1768774227483.215,1226.3736263736264,,0,-1,1768774227.483215
1768774227491.0278,1233.6996336996335,,0,-1,1768774227.4910278
1768774227498.8403,1241.7582417582416,,0,-1,1768774227.4988403
1768774227506.6528,1254.212454212454,,0,-1,1768774227.5066528
1768774227514.465,1271.7948717948716,,0,-1,1768774227.514465
1768774227522.2778,1284.9816849816848,,0,-1,1768774227.5222778
1768774227530.0903,1297.4358974358977,,0,-1,1768774227.5300903
1768774227537.9028,1311.3553113553112,,0,-1,1768774227.5379028
1768774227545.715,1323.8095238095236,,0,-1,1768774227.545715
1768774227553.5278,1331.8681318681315,,0,-1,1768774227.5535278
1768774227561.3403,1342.857142857143,,0,-1,1768774227.5613403
1768774227569.1528,1349.4505494505493,,0,-1,1768774227.5691528
1768774227576.965,1351.6483516483515,,0,-1,1768774227.576965
1768774227584.7778,1358.241758241758,,0,-1,1768774227.5847778
1768774227592.5903,1363.3699633699632,,0,-1,1768774227.5925903
1768774227600.4028,1362.6373626373625,,0,-1,1768774227.6004028
1768774227608.215,1363.3699633699632,,0,-1,1768774227.608215
1768774227616.0278,1365.5677655677655,,0,-1,1768774227.6160278
1768774227623.8403,1363.3699633699632,,0,-1,1768774227.6238403
1768774227631.6528,1364.8351648351647,,0,-1,1768774227.6316528
1768774227639.465,1368.4981684981683,,0,-1,1768774227.639465
1768774227647.2778,1374.3589743589744,,0,-1,1768774227.6472778
1768774227655.0903,1386.080586080586,,0,-1,1768774227.6550903
1768774227662.9028,1399.2673992673992,,0,-1,1768774227.6629028
1768774227670.715,1407.3260073260071,,0,-1,1768774227.670715
1768774227678.5278,1415.3846153846152,,0,-1,1768774227.6785278
1768774227686.3403,1418.3150183150185,,0,-1,1768774227.6863403
1768774227694.1528,1419.7802197802198,,0,-1,1768774227.6941528
1768774227701.965,1424.175824175824,,0,-1,1768774227.701965
1768774227709.7778,1421.9780219780218,,0,-1,1768774227.7097778
1768774227717.5903,1423.4432234432234,,0,-1,1768774227.7175903
1768774227725.4028,1416.8498168498168,,0,-1,1768774227.7254028
1768774227733.215,1408.058608058608,,0,-1,1768774227.733215
1768774227741.0278,1403.6630036630036,,0,-1,1768774227.7410278
1768774227748.8403,1394.8717948717947,,0,-1,1768774227.7488403
1768774227756.6528,1386.080586080586,,0,-1,1768774227.7566528
1768774227764.465,1371.428571428571,,0,-1,1768774227.764465
1768774227772.2778,1361.904761904762,,0,-1,1768774227.7722778
1768774227780.0903,1350.18315018315,,0,-1,1768774227.7800903
1768774227787.9028,1340.6593406593406,,0,-1,1768774227.7879028
1768774227795.715,1334.065934065934,,0,-1,1768774227.795715
1768774227803.5278,1324.5421245421244,,0,-1,1768774227.8035278
1768774227811.3403,1322.3443223443223,,0,-1,1768774227.8113403
1768774227819.1528,1319.4139194139193,,0,-1,1768774227.8191528
1768774227826.965,1316.4835164835165,,0,-1,1768774227.826965
1768774227834.7778,1317.9487179487178,,0,-1,1768774227.8347778
1768774227842.5903,1320.14652014652,,0,-1,1768774227.8425903
1768774227850.4028,1330.4029304029302,,0,-1,1768774227.8504028
1768774227858.215,1337.7289377289376,,0,-1,1768774227.858215
1768774227866.0278,1347.2527472527472,,0,-1,1768774227.8660278
1768774227873.8403,1354.5787545787546,,0,-1,1768774227.8738403
1768774227881.6528,1356.043956043956,,0,-1,1768774227.8816528
1768774227889.465,1358.974358974359,,0,-1,1768774227.889465
1768774227897.2778,1355.311355311355,,0,-1,1768774227.8972778
1768774227905.0903,1353.113553113553,,0,-1,1768774227.9050903
1768774227912.9028,1344.3223443223442,,0,-1,1768774227.9129028
1768774227920.715,1336.9963369963368,,0,-1,1768774227.920715
1768774227928.5278,1325.2747252747251,,0,-1,1768774227.9285278
1768774227936.3403,1320.14652014652,,0,-1,1768774227.9363403
1768774227944.1528,1316.4835164835165,,0,-1,1768774227.9441528
1768774227951.965,1315.7509157509155,,0,-1,1768774227.951965
1768774227959.7778,1310.6227106227104,,0,-1,1768774227.9597778
1768774227967.5903,1306.9597069597069,,0,-1,1768774227.9675903
1768774227975.4028,1301.8315018315018,,0,-1,1768774227.9754028
1768774227983.215,1295.970695970696,,0,-1,1768774227.983215
1768774227991.0278,1293.040293040293,,0,-1,1768774227.9910278
1768774227998.8403,1293.7728937728937,,0,-1,1768774227.9988403
1768774228006.6528,1290.10989010989,,0,-1,1768774228.0066528
1768774228014.465,1287.9120879120878,,0,-1,1768774228.014465
1768774228022.2778,1283.5164835164835,,0,-1,1768774228.0222778
1768774228030.0903,1283.5164835164835,,0,-1,1768774228.0300903
1768774228037.9028,1285.7142857142856,,0,-1,1768774228.0379028
1768774228045.715,1284.9816849816848,,0,-1,1768774228.045715
1768774228053.5278,1286.4468864468863,,0,-1,1768774228.0535278
1768774228061.3403,1280.5860805860805,,0,-1,1768774228.0613403
1768774228069.1528,1275.4578754578754,,0,-1,1768774228.0691528
1768774228076.965,1271.062271062271,,0,-1,1768774228.076965
1768774228084.7778,1267.3992673992673,,0,-1,1768774228.0847778
1768774228092.5903,1269.5970695970695,,0,-1,1768774228.0925903
1768774228100.4028,1270.3296703296703,,0,-1,1768774228.1004028
1768774228108.215,1276.923076923077,,0,-1,1768774228.108215
1768774228116.0278,1279.120879120879,,0,-1,1768774228.1160278
1768774228123.8403,1284.9816849816848,,0,-1,1768774228.1238403
1768774228131.6528,1289.3772893772891,,0,-1,1768774228.1316528
1768774228139.465,1296.7032967032967,,0,-1,1768774228.139465
1768774228147.2778,1295.970695970696,,0,-1,1768774228.1472778
1768774228155.0903,1295.2380952380952,,0,-1,1768774228.1550903
1768774228162.9028,1288.6446886446886,,0,-1,1768774228.1629028
1768774228170.715,1285.7142857142856,,0,-1,1768774228.170715
1768774228178.5278,1282.7838827838827,,0,-1,1768774228.1785278
1768774228186.3403,1280.5860805860805,,0,-1,1768774228.1863403
1768774228194.1528,1279.8534798534797,,0,-1,1768774228.1941528
1768774228201.965,1279.8534798534797,,0,-1,1768774228.201965
1768774228209.7778,1283.5164835164835,,0,-1,1768774228.2097778
1768774228217.5903,1287.179487179487,,0,-1,1768774228.2175903
1768774228225.4028,1290.10989010989,,0,-1,1768774228.2254028
1768774228233.215,1290.10989010989,,0,-1,1768774228.233215
1768774228241.0278,1287.9120879120878,,0,-1,1768774228.2410278
1768774228248.8403,1287.9120879120878,,0,-1,1768774228.2488403
1768774228256.6528,1283.5164835164835,,0,-1,1768774228.2566528
1768774228264.465,1279.8534798534797,,0,-1,1768774228.264465
1768774228272.2778,1278.3882783882782,,0,-1,1768774228.2722778
1768774228280.0903,1273.992673992674,,0,-1,1768774228.2800903
1768774228287.9028,1271.062271062271,,0,-1,1768774228.2879028
1768774228295.715,1271.7948717948716,,0,-1,1768774228.295715
1768774228303.5278,1271.7948717948716,,0,-1,1768774228.3035278
1768774228311.3403,1269.5970695970695,,0,-1,1768774228.3113403
1768774228319.1528,1269.5970695970695,,0,-1,1768774228.3191528
1768774228326.965,1268.131868131868,,0,-1,1768774228.326965
1768774228334.7778,1260.07326007326,,0,-1,1768774228.3347778
1768774228342.5903,1255.6776556776556,,0,-1,1768774228.3425903
1768774228350.4028,1250.5494505494505,,0,-1,1768774228.3504028
1768774228358.215,1246.8864468864467,,0,-1,1768774228.358215
1768774228366.0278,1246.8864468864467,,0,-1,1768774228.3660278
1768774228373.8403,1238.095238095238,,0,-1,1768774228.3738403
1768774228381.6528,1231.5018315018317,,0,-1,1768774228.3816528
1768774228389.465,1229.3040293040292,,0,-1,1768774228.389465
1768774228397.2778,1231.5018315018317,,0,-1,1768774228.3972778
1768774228405.0903,1240.29304029304,,0,-1,1768774228.4050903
1768774228412.9028,1248.3516483516482,,0,-1,1768774228.4129028
1768774228420.715,1254.212454212454,,0,-1,1768774228.420715
1768774228428.5278,1254.9450549450548,,0,-1,1768774228.4285278
1768774228436.3403,1254.212454212454,,0,-1,1768774228.4363403
1768774228444.1528,1257.142857142857,,0,-1,1768774228.4441528
1768774228451.965,1260.805860805861,,0,-1,1768774228.451965
1768774228459.7778,1260.07326007326,,0,-1,1768774228.4597778
1768774228467.5903,1257.142857142857,,0,-1,1768774228.4675903
1768774228475.4028,1249.8168498168498,,0,-1,1768774228.4754028
1768774228483.215,1241.0256410256409,,0,-1,1768774228.483215
1768774228491.0278,1235.8974358974358,,0,-1,1768774228.4910278
1768774228498.8403,1233.6996336996335,,0,-1,1768774228.4988403
1768774228506.6528,1232.967032967033,,0,-1,1768774228.5066528
1768774228514.465,1236.6300366300366,,0,-1,1768774228.514465
1768774228522.2778,1241.0256410256409,,0,-1,1768774228.5222778
1768774228530.0903,1248.3516483516482,,0,-1,1768774228.5300903
1768774228537.9028,1260.805860805861,,0,-1,1768774228.5379028
1768774228545.715,1274.7252747252746,,0,-1,1768774228.545715
1768774228553.5278,1290.10989010989,,0,-1,1768774228.5535278
1768774228561.3403,1306.9597069597069,,0,-1,1768774228.5613403
1768774228569.1528,1323.8095238095236,,0,-1,1768774228.5691528
1768774228576.965,1335.5311355311355,,0,-1,1768774228.576965
1768774228584.7778,1343.5897435897434,,0,-1,1768774228.5847778
1768774228592.5903,1350.9157509157508,,0,-1,1768774228.5925903
1768774228600.4028,1356.7765567765566,,0,-1,1768774228.6004028
1768774228608.215,1361.904761904762,,0,-1,1768774228.608215
1768774228616.0278,1367.7655677655678,,0,-1,1768774228.6160278
1768774228623.8403,1371.428571428571,,0,-1,1768774228.6238403
1768774228631.6528,1376.5567765567764,,0,-1,1768774228.6316528
1768774228639.465,1379.4871794871794,,0,-1,1768774228.639465
1768774228647.2778,1380.2197802197802,,0,-1,1768774228.6472778
1768774228655.0903,1380.2197802197802,,0,-1,1768774228.6550903
1768774228662.9028,1383.150183150183,,0,-1,1768774228.6629028
1768774228670.715,1389.7435897435896,,0,-1,1768774228.670715
1768774228678.5278,1398.5347985347985,,0,-1,1768774228.6785278
1768774228686.3403,1405.8608058608058,,0,-1,1768774228.6863403
1768774228694.1528,1410.989010989011,,0,-1,1768774228.6941528
1768774228701.965,1413.9194139194135,,0,-1,1768774228.701965
1768774228709.7778,1417.5824175824175,,0,-1,1768774228.7097778
1768774228717.5903,1423.4432234432234,,0,-1,1768774228.7175903
1768774228725.4028,1429.3040293040292,,0,-1,1768774228.7254028
1768774228733.215,1432.9670329670328,,0,-1,1768774228.733215
1768774228741.0278,1434.4322344322345,,0,-1,1768774228.7410278
1768774228748.8403,1435.164835164835,,0,-1,1768774228.7488403
1768774228756.6528,1435.8974358974358,,0,-1,1768774228.7566528
1768774228764.465,1434.4322344322345,,0,-1,1768774228.764465
1768774228772.2778,1433.6996336996335,,0,-1,1768774228.7722778
1768774228780.0903,1432.9670329670328,,0,-1,1768774228.7800903
1768774228787.9028,1431.5018315018317,,0,-1,1768774228.7879028
1768774228795.715,1426.3736263736262,,0,-1,1768774228.795715
1768774228803.5278,1417.5824175824175,,0,-1,1768774228.8035278
1768774228811.3403,1405.8608058608058,,0,-1,1768774228.8113403
1768774228819.1528,1395.6043956043954,,0,-1,1768774228.8191528
1768774228826.965,1382.4175824175825,,0,-1,1768774228.826965
1768774228834.7778,1371.428571428571,,0,-1,1768774228.8347778
1768774228842.5903,1364.102564102564,,0,-1,1768774228.8425903
1768774228850.4028,1360.4395604395604,,0,-1,1768774228.8504028
1768774228858.215,1361.1721611721612,,0,-1,1768774228.858215
1768774228866.0278,1361.1721611721612,,0,-1,1768774228.8660278
1768774228873.8403,1362.6373626373625,,0,-1,1768774228.8738403
1768774228881.6528,1365.5677655677655,,0,-1,1768774228.8816528
1768774228889.465,1367.032967032967,,0,-1,1768774228.889465
1768774228897.2778,1367.7655677655678,,0,-1,1768774228.8972778
1768774228905.0903,1368.4981684981683,,0,-1,1768774228.9050903
1768774228912.9028,1370.6959706959706,,0,-1,1768774228.9129028
1768774228920.715,1372.161172161172,,0,-1,1768774228.920715
1768774228928.5278,1373.6263736263736,,0,-1,1768774228.9285278
1768774228936.3403,1373.6263736263736,,0,-1,1768774228.9363403
1768774228944.1528,1372.8937728937728,,0,-1,1768774228.9441528
1768774228951.965,1373.6263736263736,,0,-1,1768774228.951965
1768774228959.7778,1375.091575091575,,0,-1,1768774228.9597778
1768774228967.5903,1375.091575091575,,0,-1,1768774228.9675903
1768774228975.4028,1376.5567765567764,,0,-1,1768774228.9754028
1768774228983.215,1378.021978021978,,0,-1,1768774228.983215
1768774228991.0278,1378.021978021978,,0,-1,1768774228.9910278
1768774228998.8403,1378.021978021978,,0,-1,1768774228.9988403
1768774229006.6528,1376.5567765567764,,0,-1,1768774229.0066528
1768774229014.465,1376.5567765567764,,0,-1,1768774229.014465
1768774229022.2778,1375.091575091575,,0,-1,1768774229.0222778
1768774229030.0903,1373.6263736263736,,0,-1,1768774229.0300903
1768774229037.9028,1372.161172161172,,0,-1,1768774229.0379028
1768774229045.715,1368.4981684981683,,0,-1,1768774229.045715
1768774229053.5278,1367.7655677655678,,0,-1,1768774229.0535278
1768774229061.3403,1368.4981684981683,,0,-1,1768774229.0613403
1768774229069.1528,1370.6959706959706,,0,-1,1768774229.0691528
1768774229076.965,1371.428571428571,,0,-1,1768774229.076965
1768774229084.7778,1372.8937728937728,,0,-1,1768774229.0847778
1768774229092.5903,1369.9633699633698,,0,-1,1768774229.0925903
1768774229100.4028,1364.102564102564,,0,-1,1768774229.1004028
1768774229108.215,1356.043956043956,,0,-1,1768774229.108215
1768774229116.0278,1350.9157509157508,,0,-1,1768774229.1160278
1768774229123.8403,1350.18315018315,,0,-1,1768774229.1238403
1768774229131.6528,1353.113553113553,,0,-1,1768774229.1316528
1768774229139.465,1354.5787545787546,,0,-1,1768774229.139465
1768774229147.2778,1355.311355311355,,0,-1,1768774229.1472778
1768774229155.0903,1355.311355311355,,0,-1,1768774229.1550903
1768774229162.9028,1355.311355311355,,0,-1,1768774229.1629028
1768774229170.715,1356.7765567765566,,0,-1,1768774229.170715
1768774229178.5278,1357.5091575091574,,0,-1,1768774229.1785278
1768774229186.3403,1355.311355311355,,0,-1,1768774229.1863403
1768774229194.1528,1346.5201465201465,,0,-1,1768774229.1941528
1768774229201.965,1332.6007326007325,,0,-1,1768774229.201965
1768774229209.7778,1318.6813186813183,,0,-1,1768774229.2097778
1768774229217.5903,1306.9597069597069,,0,-1,1768774229.2175903
1768774229225.4028,1298.9010989010987,,0,-1,1768774229.2254028
1768774229233.215,1291.5750915750914,,0,-1,1768774229.233215
1768774229241.0278,1288.6446886446886,,0,-1,1768774229.2410278
1768774229248.8403,1287.179487179487,,0,-1,1768774229.2488403
1768774229256.6528,1287.9120879120878,,0,-1,1768774229.2566528
1768774229264.465,1287.179487179487,,0,-1,1768774229.264465
1768774229272.2778,1285.7142857142856,,0,-1,1768774229.2722778
1768774229280.0903,1282.051282051282,,0,-1,1768774229.2800903
1768774229287.9028,1278.3882783882782,,0,-1,1768774229.2879028
1768774229295.715,1273.260073260073,,0,-1,1768774229.295715
1768774229303.5278,1270.3296703296703,,0,-1,1768774229.3035278
1768774229311.3403,1271.062271062271,,0,-1,1768774229.3113403
1768774229319.1528,1271.7948717948716,,0,-1,1768774229.3191528
1768774229326.965,1271.062271062271,,0,-1,1768774229.326965
1768774229334.7778,1268.8644688644688,,0,-1,1768774229.3347778
1768774229342.5903,1265.2014652014652,,0,-1,1768774229.3425903
1768774229350.4028,1264.4688644688645,,0,-1,1768774229.3504028
1768774229358.215,1263.7362637362637,,1,1,1768774229.358215
1768774229366.0278,1263.003663003663,,1,1,1768774229.3660278
1768774229373.8403,1263.7362637362637,,1,1,1768774229.3738403
1768774229381.6528,1262.2710622710622,,1,1,1768774229.3816528
1768774229389.465,1257.875457875458,,1,1,1768774229.389465
1768774229397.2778,1254.212454212454,,1,1,1768774229.3972778
1768774229405.0903,1252.014652014652,,1,1,1768774229.4050903
1768774229412.9028,1252.7472527472526,,1,1,1768774229.4129028
1768774229420.715,1256.4102564102564,,1,1,1768774229.420715
1768774229428.5278,1261.5384615384614,,1,1,1768774229.4285278
1768774229436.3403,1265.9340659340658,,1,1,1768774229.4363403
1768774229444.1528,1266.6666666666663,,1,1,1768774229.4441528
1768774229451.965,1268.8644688644688,,1,1,1768774229.451965
1768774229459.7778,1270.3296703296703,,1,1,1768774229.4597778
1768774229467.5903,1276.190476190476,,1,1,1768774229.4675903
1768774229475.4028,1287.179487179487,,1,1,1768774229.4754028
1768774229483.215,1298.168498168498,,1,1,1768774229.483215
1768774229491.0278,1309.89010989011,,1,1,1768774229.4910278
1768774229498.8403,1323.076923076923,,1,1,1768774229.4988403
1768774229506.6528,1336.9963369963368,,1,1,1768774229.5066528
1768774229514.465,1353.113553113553,,1,1,1768774229.514465
1768774229522.2778,1371.428571428571,,1,1,1768774229.5222778
1768774229530.0903,1386.8131868131868,,1,1,1768774229.5300903
1768774229537.9028,1400.7326007326003,,1,1,1768774229.5379028
1768774229545.715,1409.5238095238094,,1,1,1768774229.545715
1768774229553.5278,1419.7802197802198,,1,1,1768774229.5535278
1768774229561.3403,1430.7692307692307,,1,1,1768774229.5613403
1768774229569.1528,1439.5604395604394,,1,1,1768774229.5691528
1768774229576.965,1444.688644688645,,1,1,1768774229.576965
1768774229584.7778,1446.8864468864467,,1,1,1768774229.5847778
1768774229592.5903,1448.3516483516482,,1,1,1768774229.5925903
1768774229600.4028,1449.084249084249,,1,1,1768774229.6004028
1768774229608.215,1452.7472527472526,,1,1,1768774229.608215
1768774229616.0278,1458.6080586080584,,1,1,1768774229.6160278
1768774229623.8403,1463.003663003663,,1,1,1768774229.6238403
1768774229631.6528,1468.131868131868,,1,1,1768774229.6316528
1768774229639.465,1473.992673992674,,1,1,1768774229.639465
1768774229647.2778,1481.3186813186812,,1,1,1768774229.6472778
1768774229655.0903,1487.9120879120878,,1,1,1768774229.6550903
1768774229662.9028,1493.7728937728937,,1,1,1768774229.6629028
1768774229670.715,1499.6336996336995,,1,1,1768774229.670715
1768774229678.5278,1502.5641025641023,,1,1,1768774229.6785278
1768774229686.3403,1503.2967032967033,,1,1,1768774229.6863403
1768774229694.1528,1501.098901098901,,1,1,1768774229.6941528
1768774229701.965,1492.3076923076922,,1,1,1768774229.701965
1768774229709.7778,1482.051282051282,,1,1,1768774229.7097778
1768774229717.5903,1471.7948717948716,,1,1,1768774229.7175903
1768774229725.4028,1463.003663003663,,1,1,1768774229.7254028
1768774229733.215,1453.479853479853,,1,1,1768774229.733215
1768774229741.0278,1446.8864468864467,,1,1,1768774229.7410278
1768774229748.8403,1441.7582417582416,,1,1,1768774229.7488403
1768774229756.6528,1435.8974358974358,,1,1,1768774229.7566528
1768774229764.465,1429.3040293040292,,1,1,1768774229.764465
1768774229772.2778,1421.9780219780218,,1,1,1768774229.7722778
1768774229780.0903,1416.8498168498168,,1,1,1768774229.7800903
1768774229787.9028,1414.6520146520145,,1,1,1768774229.7879028
1768774229795.715,1413.9194139194135,,1,1,1768774229.795715
1768774229803.5278,1412.4542124542124,,1,1,1768774229.8035278
1768774229811.3403,1407.3260073260071,,1,1,1768774229.8113403
1768774229819.1528,1401.4652014652013,,1,1,1768774229.8191528
1768774229826.965,1396.3369963369962,,1,1,1768774229.826965
1768774229834.7778,1392.6739926739926,,1,1,1768774229.8347778
1768774229842.5903,1391.941391941392,,1,1,1768774229.8425903
1768774229850.4028,1391.941391941392,,1,1,1768774229.8504028
1768774229858.215,1393.4065934065934,,1,1,1768774229.858215
1768774229866.0278,1394.8717948717947,,1,1,1768774229.8660278
1768774229873.8403,1396.3369963369962,,1,1,1768774229.8738403
1768774229881.6528,1395.6043956043954,,1,1,1768774229.8816528
1768774229889.465,1394.139194139194,,1,1,1768774229.889465
1768774229897.2778,1394.139194139194,,1,1,1768774229.8972778
1768774229905.0903,1397.8021978021975,,1,1,1768774229.9050903
1768774229912.9028,1405.128205128205,,1,1,1768774229.9129028
1768774229920.715,1410.2564102564102,,1,1,1768774229.920715
1768774229928.5278,1410.989010989011,,1,1,1768774229.9285278
1768774229936.3403,1408.058608058608,,1,1,1768774229.9363403
1768774229944.1528,1398.5347985347985,,1,1,1768774229.9441528
1768774229951.965,1387.5457875457876,,1,1,1768774229.951965
1768774229959.7778,1376.5567765567764,,1,1,1768774229.9597778
1768774229967.5903,1367.7655677655678,,1,1,1768774229.9675903
1768774229975.4028,1356.7765567765566,,1,1,1768774229.9754028
1768774229983.215,1347.2527472527472,,1,1,1768774229.983215
1768774229991.0278,1339.92673992674,,1,1,1768774229.9910278
1768774229998.8403,1334.065934065934,,1,1,1768774229.9988403
1768774230006.6528,1327.4725274725274,,1,1,1768774230.0066528
1768774230014.465,1320.8791208791208,,1,1,1768774230.014465
1768774230022.2778,1320.8791208791208,,1,1,1768774230.0222778
1768774230030.0903,1323.076923076923,,1,1,1768774230.0300903
1768774230037.9028,1331.8681318681315,,1,1,1768774230.0379028
1768774230045.715,1341.3919413919414,,1,1,1768774230.045715
1768774230053.5278,1352.3809523809523,,1,1,1768774230.0535278
1768774230061.3403,1356.043956043956,,1,1,1768774230.0613403
1768774230069.1528,1354.5787545787546,,1,1,1768774230.0691528
1768774230076.965,1350.9157509157508,,1,1,1768774230.076965
1768774230084.7778,1342.857142857143,,1,1,1768774230.0847778
1768774230092.5903,1335.5311355311355,,1,1,1768774230.0925903
1768774230100.4028,1329.6703296703297,,1,1,1768774230.1004028
1768774230108.215,1321.6117216117216,,1,1,1768774230.108215
1768774230116.0278,1313.5531135531137,,1,1,1768774230.1160278
1768774230123.8403,1306.9597069597069,,1,1,1768774230.1238403
1768774230131.6528,1297.4358974358977,,1,1,1768774230.1316528
1768774230139.465,1291.5750915750914,,1,1,1768774230.139465
1768774230147.2778,1286.4468864468863,,1,1,1768774230.1472778
1768774230155.0903,1282.051282051282,,1,1,1768774230.1550903
1768774230162.9028,1276.190476190476,,1,1,1768774230.1629028
1768774230170.715,1274.7252747252746,,1,1,1768774230.170715
1768774230178.5278,1269.5970695970695,,1,1,1768774230.1785278
1768774230186.3403,1269.5970695970695,,1,1,1768774230.1863403
1768774230194.1528,1272.5274725274724,,1,1,1768774230.1941528
1768774230201.965,1273.260073260073,,1,1,1768774230.201965
1768774230209.7778,1277.6556776556777,,1,1,1768774230.2097778
1768774230217.5903,1275.4578754578754,,1,1,1768774230.2175903
1768774230225.4028,1272.5274725274724,,1,1,1768774230.2254028
1768774230233.215,1271.7948717948716,,1,1,1768774230.233215
1768774230241.0278,1265.9340659340658,,1,1,1768774230.2410278
1768774230248.8403,1263.003663003663,,1,1,1768774230.2488403
1768774230256.6528,1262.2710622710622,,1,1,1768774230.2566528
1768774230264.465,1259.3406593406592,,1,1,1768774230.264465
1768774230272.2778,1258.6080586080586,,1,1,1768774230.2722778
1768774230280.0903,1257.875457875458,,1,1,1768774230.2800903
1768774230287.9028,1256.4102564102564,,1,1,1768774230.2879028
1768774230295.715,1255.6776556776556,,1,1,1768774230.295715
1768774230303.5278,1258.6080586080586,,1,1,1768774230.3035278
1768774230311.3403,1255.6776556776556,,1,1,1768774230.3113403
1768774230319.1528,1254.212454212454,,1,1,1768774230.3191528
1768774230326.965,1251.2820512820513,,1,1,1768774230.326965
1768774230334.7778,1253.479853479853,,1,1,1768774230.3347778
1768774230342.5903,1255.6776556776556,,1,1,1768774230.3425903
1768774230350.4028,1254.9450549450548,,1,1,1768774230.3504028
1768774230358.215,1263.003663003663,,1,1,1768774230.358215
1768774230366.0278,1273.260073260073,,1,1,1768774230.3660278
1768774230373.8403,1282.7838827838827,,1,1,1768774230.3738403
1768774230381.6528,1294.5054945054944,,1,1,1768774230.3816528
1768774230389.465,1312.8205128205127,,1,1,1768774230.389465
1768774230397.2778,1323.8095238095236,,1,1,1768774230.3972778
1768774230405.0903,1337.7289377289376,,1,1,1768774230.4050903
1768774230412.9028,1351.6483516483515,,1,1,1768774230.4129028
1768774230420.715,1361.904761904762,,1,1,1768774230.420715
1768774230428.5278,1377.2893772893772,,1,1,1768774230.4285278
1768774230436.3403,1389.0109890109889,,1,1,1768774230.4363403
1768774230444.1528,1394.8717948717947,,1,1,1768774230.4441528
1768774230451.965,1398.5347985347985,,1,1,1768774230.451965
1768774230459.7778,1398.5347985347985,,1,1,1768774230.4597778
1768774230467.5903,1396.3369963369962,,1,1,1768774230.4675903
1768774230475.4028,1394.8717948717947,,1,1,1768774230.4754028
1768774230483.215,1397.069597069597,,1,1,1768774230.483215
1768774230491.0278,1397.8021978021975,,1,1,1768774230.4910278
1768774230498.8403,1397.069597069597,,1,1,1768774230.4988403
1768774230506.6528,1400.7326007326003,,1,1,1768774230.5066528
1768774230514.465,1402.9304029304028,,1,1,1768774230.514465
1768774230522.2778,1402.197802197802,,1,1,1768774230.5222778
1768774230530.0903,1405.8608058608058,,1,1,1768774230.5300903
1768774230537.9028,1413.1868131868132,,1,1,1768774230.5379028
1768774230545.715,1418.3150183150185,,1,1,1768774230.545715
1768774230553.5278,1427.106227106227,,1,1,1768774230.5535278
1768774230561.3403,1434.4322344322345,,1,1,1768774230.5613403
1768774230569.1528,1431.5018315018317,,1,1,1768774230.5691528
1768774230576.965,1427.8388278388277,,1,1,1768774230.576965
1768774230584.7778,1424.9084249084249,,1,1,1768774230.5847778
1768774230592.5903,1417.5824175824175,,1,1,1768774230.5925903
1768774230600.4028,1410.2564102564102,,1,1,1768774230.6004028
1768774230608.215,1406.5934065934066,,1,1,1768774230.608215
1768774230616.0278,1400.7326007326003,,1,1,1768774230.6160278
1768774230623.8403,1391.941391941392,,1,1,1768774230.6238403
1768774230631.6528,1387.5457875457876,,1,1,1768774230.6316528
1768774230639.465,1377.2893772893772,,1,1,1768774230.639465
1768774230647.2778,1371.428571428571,,1,1,1768774230.6472778
1768774230655.0903,1371.428571428571,,1,1,1768774230.6550903
1768774230662.9028,1369.230769230769,,1,1,1768774230.6629028
1768774230670.715,1372.161172161172,,1,1,1768774230.670715
1768774230678.5278,1369.230769230769,,1,1,1768774230.6785278
1768774230686.3403,1369.230769230769,,1,1,1768774230.6863403
1768774230694.1528,1372.8937728937728,,1,1,1768774230.6941528
1768774230701.965,1374.3589743589744,,1,1,1768774230.701965
1768774230709.7778,1375.8241758241757,,1,1,1768774230.7097778
1768774230717.5903,1375.091575091575,,1,1,1768774230.7175903
1768774230725.4028,1375.091575091575,,1,1,1768774230.7254028
1768774230733.215,1378.7545787545787,,1,1,1768774230.733215
1768774230741.0278,1382.4175824175825,,1,1,1768774230.7410278
1768774230748.8403,1386.080586080586,,1,1,1768774230.7488403
1768774230756.6528,1384.6153846153843,,1,1,1768774230.7566528
1768774230764.465,1389.0109890109889,,1,1,1768774230.764465
1768774230772.2778,1394.139194139194,,1,1,1768774230.7722778
1768774230780.0903,1396.3369963369962,,1,1,1768774230.7800903
1768774230787.9028,1402.9304029304028,,1,1,1768774230.7879028
1768774230795.715,1405.128205128205,,1,1,1768774230.795715
1768774230803.5278,1411.7216117216117,,1,1,1768774230.8035278
1768774230811.3403,1411.7216117216117,,1,1,1768774230.8113403
1768774230819.1528,1403.6630036630036,,1,1,1768774230.8191528
1768774230826.965,1397.069597069597,,1,1,1768774230.826965
1768774230834.7778,1387.5457875457876,,1,1,1768774230.8347778
1768774230842.5903,1379.4871794871794,,1,1,1768774230.8425903
1768774230850.4028,1372.8937728937728,,1,1,1768774230.8504028
1768774230858.215,1360.4395604395604,,1,1,1768774230.858215
1768774230866.0278,1351.6483516483515,,1,1,1768774230.8660278
1768774230873.8403,1350.18315018315,,1,1,1768774230.8738403
1768774230881.6528,1347.985347985348,,1,1,1768774230.8816528
1768774230889.465,1354.5787545787546,,1,1,1768774230.889465
1768774230897.2778,1356.043956043956,,1,1,1768774230.8972778
1768774230905.0903,1358.974358974359,,1,1,1768774230.9050903
1768774230912.9028,1354.5787545787546,,1,1,1768774230.9129028
1768774230920.715,1354.5787545787546,,1,1,1768774230.920715
1768774230928.5278,1351.6483516483515,,1,1,1768774230.9285278
1768774230936.3403,1353.8461538461538,,1,1,1768774230.9363403
1768774230944.1528,1348.7179487179487,,1,1,1768774230.9441528
1768774230951.965,1345.054945054945,,1,1,1768774230.951965
1768774230959.7778,1335.5311355311355,,1,1,1768774230.9597778
1768774230967.5903,1334.065934065934,,1,1,1768774230.9675903
1768774230975.4028,1330.4029304029302,,1,1,1768774230.9754028
1768774230983.215,1333.3333333333333,,1,1,1768774230.983215
1768774230991.0278,1336.9963369963368,,1,1,1768774230.9910278
1768774230998.8403,1335.5311355311355,,1,1,1768774230.9988403
1768774231006.6528,1335.5311355311355,,1,1,1768774231.0066528
1768774231014.465,1331.8681318681315,,1,1,1768774231.014465
1768774231022.2778,1327.4725274725274,,1,1,1768774231.0222778
1768774231030.0903,1326.739926739927,,1,1,1768774231.0300903
1768774231037.9028,1323.076923076923,,1,1,1768774231.0379028
1768774231045.715,1316.4835164835165,,1,1,1768774231.045715
1768774231053.5278,1312.8205128205127,,1,1,1768774231.0535278
1768774231061.3403,1304.7619047619046,,1,1,1768774231.0613403
1768774231069.1528,1301.8315018315018,,1,1,1768774231.0691528
1768774231076.965,1298.9010989010987,,1,1,1768774231.076965
1768774231084.7778,1298.168498168498,,1,1,1768774231.0847778
1768774231092.5903,1300.3663003663005,,1,1,1768774231.0925903
1768774231100.4028,1304.7619047619046,,1,1,1768774231.1004028
1768774231108.215,1311.3553113553112,,1,1,1768774231.108215
1768774231116.0278,1312.087912087912,,1,1,1768774231.1160278
1768774231123.8403,1315.018315018315,,1,1,1768774231.1238403
1768774231131.6528,1315.018315018315,,1,1,1768774231.1316528
1768774231139.465,1317.216117216117,,1,1,1768774231.139465
1768774231147.2778,1315.7509157509155,,1,1,1768774231.1472778
1768774231155.0903,1315.7509157509155,,1,1,1768774231.1550903
1768774231162.9028,1312.087912087912,,1,1,1768774231.1629028
1768774231170.715,1311.3553113553112,,1,1,1768774231.170715
1768774231178.5278,1309.89010989011,,1,1,1768774231.1785278
1768774231186.3403,1312.087912087912,,1,1,1768774231.1863403
1768774231194.1528,1312.8205128205127,,1,1,1768774231.1941528
1768774231201.965,1317.9487179487178,,1,1,1768774231.201965
1768774231209.7778,1323.076923076923,,1,1,1768774231.2097778
1768774231217.5903,1333.3333333333333,,1,1,1768774231.2175903
1768774231225.4028,1339.194139194139,,1,1,1768774231.2254028
1768774231233.215,1347.985347985348,,1,1,1768774231.233215
1768774231241.0278,1361.1721611721612,,1,1,1768774231.2410278
1768774231248.8403,1370.6959706959706,,1,1,1768774231.2488403
1768774231256.6528,1386.8131868131868,,1,1,1768774231.2566528
1768774231264.465,1400.7326007326003,,1,1,1768774231.264465
1768774231272.2778,1419.7802197802198,,1,1,1768774231.2722778
1768774231280.0903,1431.5018315018317,,1,1,1768774231.2800903
1768774231287.9028,1449.084249084249,,1,1,1768774231.2879028
1768774231295.715,1461.5384615384614,,1,1,1768774231.295715
1768774231303.5278,1477.6556776556777,,1,1,1768774231.3035278
1768774231311.3403,1487.179487179487,,1,1,1768774231.3113403
1768774231319.1528,1494.5054945054944,,1,1,1768774231.3191528
1768774231326.965,1500.3663003663005,,1,1,1768774231.326965
1768774231334.7778,1502.5641025641023,,1,1,1768774231.3347778
1768774231342.5903,1496.7032967032967,,1,1,1768774231.3425903
1768774231350.4028,1495.970695970696,,1,1,1768774231.3504028
1768774231358.215,1489.3772893772891,,1,1,1768774231.358215
1768774231366.0278,1486.4468864468863,,1,1,1768774231.3660278
1768774231373.8403,1480.5860805860805,,1,1,1768774231.3738403
1768774231381.6528,1476.923076923077,,1,1,1768774231.3816528
1768774231389.465,1469.5970695970695,,1,1,1768774231.389465
1768774231397.2778,1464.4688644688645,,1,1,1768774231.3972778
1768774231405.0903,1460.07326007326,,1,1,1768774231.4050903
1768774231412.9028,1457.142857142857,,1,1,1768774231.4129028
1768774231420.715,1455.6776556776556,,1,1,1768774231.420715
1768774231428.5278,1450.5494505494505,,1,1,1768774231.4285278
1768774231436.3403,1447.6190476190477,,1,1,1768774231.4363403
1768774231444.1528,1438.8278388278388,,1,1,1768774231.4441528
1768774231451.965,1430.7692307692307,,1,1,1768774231.451965
1768774231459.7778,1421.9780219780218,,1,1,1768774231.4597778
1768774231467.5903,1419.047619047619,,1,1,1768774231.4675903
1768774231475.4028,1416.117216117216,,1,1,1768774231.4754028
1768774231483.215,1411.7216117216117,,1,1,1768774231.483215
1768774231491.0278,1416.117216117216,,1,1,1768774231.4910278
1768774231498.8403,1418.3150183150185,,1,1,1768774231.4988403
1768774231506.6528,1426.3736263736262,,1,1,1768774231.5066528
1768774231514.465,1429.3040293040292,,1,1,1768774231.514465
1768774231522.2778,1436.6300366300366,,1,1,1768774231.5222778
1768774231530.0903,1440.29304029304,,1,1,1768774231.5300903
1768774231537.9028,1447.6190476190477,,1,1,1768774231.5379028
1768774231545.715,1448.3516483516482,,1,1,1768774231.545715
1768774231553.5278,1452.7472527472526,,1,1,1768774231.5535278
1768774231561.3403,1449.084249084249,,1,1,1768774231.5613403
1768774231569.1528,1450.5494505494505,,1,1,1768774231.5691528
1768774231576.965,1444.688644688645,,1,1,1768774231.576965
1768774231584.7778,1442.4908424908424,,1,1,1768774231.5847778
1768774231592.5903,1435.8974358974358,,1,1,1768774231.5925903
1768774231600.4028,1432.2344322344322,,1,1,1768774231.6004028
1768774231608.215,1424.9084249084249,,1,1,1768774231.608215
1768774231616.0278,1422.7106227106226,,1,1,1768774231.6160278
1768774231623.8403,1414.6520146520145,,1,1,1768774231.6238403
1768774231631.6528,1410.989010989011,,1,1,1768774231.6316528
1768774231639.465,1405.8608058608058,,1,1,1768774231.639465
1768774231647.2778,1407.3260073260071,,1,1,1768774231.6472778
1768774231655.0903,1402.9304029304028,,1,1,1768774231.6550903
1768774231662.9028,1402.9304029304028,,1,1,1768774231.6629028
1768774231670.715,1394.8717948717947,,1,1,1768774231.670715
1768774231678.5278,1391.941391941392,,1,1,1768774231.6785278
1768774231686.3403,1386.8131868131868,,1,1,1768774231.6863403
1768774231694.1528,1386.080586080586,,1,1,1768774231.6941528
1768774231701.965,1391.941391941392,,1,1,1768774231.701965
1768774231709.7778,1397.8021978021975,,1,1,1768774231.7097778
1768774231717.5903,1405.8608058608058,,1,1,1768774231.7175903
1768774231725.4028,1408.7912087912086,,1,1,1768774231.7254028
1768774231733.215,1412.4542124542124,,1,1,1768774231.733215
1768774231741.0278,1413.1868131868132,,1,1,1768774231.7410278
1768774231748.8403,1413.1868131868132,,1,1,1768774231.7488403
1768774231756.6528,1415.3846153846152,,1,1,1768774231.7566528
1768774231764.465,1408.058608058608,,1,1,1768774231.764465
1768774231772.2778,1400.0,,1,1,1768774231.7722778
1768774231780.0903,1389.7435897435896,,1,1,1768774231.7800903
1768774231787.9028,1376.5567765567764,,1,1,1768774231.7879028
1768774231795.715,1373.6263736263736,,1,1,1768774231.795715
1768774231803.5278,1370.6959706959706,,1,1,1768774231.8035278
1768774231811.3403,1365.5677655677655,,1,1,1768774231.8113403
1768774231819.1528,1362.6373626373625,,1,1,1768774231.8191528
1768774231826.965,1362.6373626373625,,1,1,1768774231.826965
1768774231834.7778,1356.7765567765566,,1,1,1768774231.8347778
1768774231842.5903,1355.311355311355,,1,1,1768774231.8425903
1768774231850.4028,1347.985347985348,,1,1,1768774231.8504028
1768774231858.215,1346.5201465201465,,1,1,1768774231.858215
1768774231866.0278,1345.054945054945,,1,1,1768774231.8660278
1768774231873.8403,1340.6593406593406,,1,1,1768774231.8738403
1768774231881.6528,1342.857142857143,,1,1,1768774231.8816528
1768774231889.465,1345.054945054945,,1,1,1768774231.889465
1768774231897.2778,1346.5201465201465,,1,1,1768774231.8972778
1768774231905.0903,1352.3809523809523,,1,1,1768774231.9050903
1768774231912.9028,1355.311355311355,,1,1,1768774231.9129028
1768774231920.715,1353.8461538461538,,1,1,1768774231.920715
1768774231928.5278,1350.18315018315,,1,1,1768774231.9285278
1768774231936.3403,1339.92673992674,,1,1,1768774231.9363403
1768774231944.1528,1335.5311355311355,,1,1,1768774231.9441528
1768774231951.965,1329.6703296703297,,1,1,1768774231.951965
1768774231959.7778,1326.739926739927,,1,1,1768774231.9597778
1768774231967.5903,1319.4139194139193,,1,1,1768774231.9675903
1768774231975.4028,1316.4835164835165,,1,1,1768774231.9754028
1768774231983.215,1311.3553113553112,,1,1,1768774231.983215
1768774231991.0278,1309.1575091575091,,1,1,1768774231.9910278
1768774231998.8403,1309.89010989011,,1,1,1768774231.9988403
1768774232006.6528,1313.5531135531137,,1,1,1768774232.0066528
1768774232014.465,1326.007326007326,,1,1,1768774232.014465
1768774232022.2778,1340.6593406593406,,1,1,1768774232.0222778
1768774232030.0903,1363.3699633699632,,1,1,1768774232.0300903
1768774232037.9028,1384.6153846153843,,1,1,1768774232.0379028
1768774232045.715,1409.5238095238094,,1,1,1768774232.045715
1768774232053.5278,1429.3040293040292,,1,1,1768774232.0535278
1768774232061.3403,1450.5494505494505,,1,1,1768774232.0613403
1768774232069.1528,1465.9340659340658,,1,1,1768774232.0691528
1768774232076.965,1482.051282051282,,1,1,1768774232.076965
1768774232084.7778,1493.7728937728937,,1,1,1768774232.0847778
1768774232092.5903,1508.4249084249084,,1,1,1768774232.0925903
1768774232100.4028,1514.2857142857142,,1,1,1768774232.1004028
1768774232108.215,1522.3443223443223,,1,1,1768774232.108215
1768774232116.0278,1523.8095238095236,,1,1,1768774232.1160278
1768774232123.8403,1527.4725274725274,,1,1,1768774232.1238403
1768774232131.6528,1525.2747252747251,,1,1,1768774232.1316528
1768774232139.465,1524.5421245421244,,1,1,1768774232.139465
1768774232147.2778,1527.4725274725274,,1,1,1768774232.1472778
1768774232155.0903,1527.4725274725274,,1,1,1768774232.1550903
1768774232162.9028,1528.2051282051282,,1,1,1768774232.1629028
1768774232170.715,1531.8681318681315,,1,1,1768774232.170715
1768774232178.5278,1532.6007326007325,,1,1,1768774232.1785278
1768774232186.3403,1536.263736263736,,1,1,1768774232.1863403
1768774232194.1528,1539.92673992674,,1,1,1768774232.1941528
1768774232201.965,1539.194139194139,,1,1,1768774232.201965
1768774232209.7778,1542.857142857143,,1,1,1768774232.2097778
1768774232217.5903,1542.124542124542,,1,1,1768774232.2175903
1768774232225.4028,1544.3223443223442,,1,1,1768774232.2254028
1768774232233.215,1537.7289377289376,,1,1,1768774232.233215
1768774232241.0278,1532.6007326007325,,1,1,1768774232.2410278
1768774232248.8403,1523.8095238095236,,1,1,1768774232.2488403
1768774232256.6528,1511.3553113553112,,1,1,1768774232.2566528
1768774232264.465,1500.3663003663005,,1,1,1768774232.264465
1768774232272.2778,1490.8424908424906,,1,1,1768774232.2722778
1768774232280.0903,1477.6556776556777,,1,1,1768774232.2800903
1768774232287.9028,1470.3296703296703,,1,1,1768774232.2879028
1768774232295.715,1462.2710622710622,,1,1,1768774232.295715
1768774232303.5278,1458.6080586080584,,1,1,1768774232.3035278
1768774232311.3403,1457.875457875458,,1,1,1768774232.3113403
1768774232319.1528,1452.014652014652,,1,1,1768774232.3191528
1768774232326.965,1449.084249084249,,1,1,1768774232.326965
1768774232334.7778,1443.956043956044,,1,1,1768774232.3347778
1768774232342.5903,1436.6300366300366,,1,1,1768774232.3425903
1768774232350.4028,1433.6996336996335,,1,1,1768774232.3504028
1768774232358.215,1426.3736263736262,,1,1,1768774232.358215
1768774232366.0278,1427.106227106227,,1,1,1768774232.3660278
1768774232373.8403,1428.5714285714284,,1,1,1768774232.3738403
1768774232381.6528,1427.106227106227,,1,1,1768774232.3816528
1768774232389.465,1425.6410256410256,,0,-1,1768774232.389465
1768774232397.2778,1419.047619047619,,0,-1,1768774232.3972778
1768774232405.0903,1417.5824175824175,,0,-1,1768774232.4050903
1768774232412.9028,1419.7802197802198,,0,-1,1768774232.4129028
1768774232420.715,1418.3150183150185,,0,-1,1768774232.420715
1768774232428.5278,1424.175824175824,,0,-1,1768774232.4285278
1768774232436.3403,1427.106227106227,,0,-1,1768774232.4363403
1768774232444.1528,1425.6410256410256,,0,-1,1768774232.4441528
1768774232451.965,1429.3040293040292,,0,-1,1768774232.451965
1768774232459.7778,1428.5714285714284,,0,-1,1768774232.4597778
1768774232467.5903,1423.4432234432234,,0,-1,1768774232.4675903
1768774232475.4028,1418.3150183150185,,0,-1,1768774232.4754028
1768774232483.215,1409.5238095238094,,0,-1,1768774232.483215
1768774232491.0278,1405.128205128205,,0,-1,1768774232.4910278
1768774232498.8403,1398.5347985347985,,0,-1,1768774232.4988403
1768774232506.6528,1389.0109890109889,,0,-1,1768774232.5066528
1768774232514.465,1380.2197802197802,,0,-1,1768774232.514465
1768774232522.2778,1368.4981684981683,,0,-1,1768774232.5222778
1768774232530.0903,1366.3003663003662,,0,-1,1768774232.5300903
1768774232537.9028,1361.1721611721612,,0,-1,1768774232.5379028
1768774232545.715,1357.5091575091574,,0,-1,1768774232.545715
1768774232553.5278,1350.9157509157508,,0,-1,1768774232.5535278
1768774232561.3403,1347.2527472527472,,0,-1,1768774232.5613403
1768774232569.1528,1347.985347985348,,0,-1,1768774232.5691528
1768774232576.965,1347.985347985348,,0,-1,1768774232.576965
1768774232584.7778,1349.4505494505493,,0,-1,1768774232.5847778
1768774232592.5903,1356.043956043956,,0,-1,1768774232.5925903
1768774232600.4028,1364.8351648351647,,0,-1,1768774232.6004028
1768774232608.215,1367.7655677655678,,0,-1,1768774232.608215
1768774232616.0278,1370.6959706959706,,0,-1,1768774232.6160278
1768774232623.8403,1370.6959706959706,,0,-1,1768774232.6238403
1768774232631.6528,1367.032967032967,,0,-1,1768774232.6316528
1768774232639.465,1358.974358974359,,0,-1,1768774232.639465
1768774232647.2778,1355.311355311355,,0,-1,1768774232.6472778
1768774232655.0903,1350.18315018315,,0,-1,1768774232.6550903
1768774232662.9028,1347.2527472527472,,0,-1,1768774232.6629028
1768774232670.715,1344.3223443223442,,0,-1,1768774232.670715
1768774232678.5278,1345.054945054945,,0,-1,1768774232.6785278
1768774232686.3403,1344.3223443223442,,0,-1,1768774232.6863403
1768774232694.1528,1339.194139194139,,0,-1,1768774232.6941528
1768774232701.965,1331.8681318681315,,0,-1,1768774232.701965
1768774232709.7778,1325.2747252747251,,0,-1,1768774232.7097778
1768774232717.5903,1323.076923076923,,0,-1,1768774232.7175903
1768774232725.4028,1320.14652014652,,0,-1,1768774232.7254028
1768774232733.215,1318.6813186813183,,0,-1,1768774232.733215
1768774232741.0278,1315.018315018315,,0,-1,1768774232.7410278
1768774232748.8403,1312.087912087912,,0,-1,1768774232.7488403
1768774232756.6528,1309.1575091575091,,0,-1,1768774232.7566528
1768774232764.465,1306.9597069597069,,0,-1,1768774232.764465
1768774232772.2778,1306.9597069597069,,0,-1,1768774232.7722778
1768774232780.0903,1312.087912087912,,0,-1,1768774232.7800903
1768774232787.9028,1323.076923076923,,0,-1,1768774232.7879028
1768774232795.715,1342.124542124542,,0,-1,1768774232.795715
1768774232803.5278,1361.1721611721612,,0,-1,1768774232.8035278
1768774232811.3403,1385.3479853479853,,0,-1,1768774232.8113403
1768774232819.1528,1410.2564102564102,,0,-1,1768774232.8191528
1768774232826.965,1435.164835164835,,0,-1,1768774232.826965
1768774232834.7778,1460.07326007326,,0,-1,1768774232.8347778
1768774232842.5903,1484.9816849816848,,0,-1,1768774232.8425903
1768774232850.4028,1506.9597069597069,,0,-1,1768774232.8504028
1768774232858.215,1526.739926739927,,0,-1,1768774232.858215
1768774232866.0278,1543.5897435897434,,0,-1,1768774232.8660278
1768774232873.8403,1559.7069597069597,,0,-1,1768774232.8738403
1768774232881.6528,1572.161172161172,,0,-1,1768774232.8816528
1768774232889.465,1580.9523809523807,,0,-1,1768774232.889465
1768774232897.2778,1585.3479853479853,,0,-1,1768774232.8972778
1768774232905.0903,1587.545787545787,,0,-1,1768774232.9050903
1768774232912.9028,1586.8131868131868,,0,-1,1768774232.9129028
1768774232920.715,1584.6153846153843,,0,-1,1768774232.920715
1768774232928.5278,1585.3479853479853,,0,-1,1768774232.9285278
1768774232936.3403,1589.7435897435896,,0,-1,1768774232.9363403
1768774232944.1528,1590.4761904761904,,0,-1,1768774232.9441528
1768774232951.965,1590.4761904761904,,0,-1,1768774232.951965
1768774232959.7778,1588.278388278388,,0,-1,1768774232.9597778
1768774232967.5903,1587.545787545787,,0,-1,1768774232.9675903
1768774232975.4028,1589.7435897435896,,0,-1,1768774232.9754028
1768774232983.215,1592.6739926739926,,0,-1,1768774232.983215
1768774232991.0278,1597.069597069597,,0,-1,1768774232.9910278
1768774232998.8403,1597.8021978021975,,0,-1,1768774232.9988403
1768774233006.6528,1597.8021978021975,,0,-1,1768774233.0066528
1768774233014.465,1594.8717948717947,,0,-1,1768774233.014465
1768774233022.2778,1590.4761904761904,,0,-1,1768774233.0222778
1768774233030.0903,1586.080586080586,,0,-1,1768774233.0300903
1768774233037.9028,1577.2893772893772,,0,-1,1768774233.0379028
1768774233045.715,1563.3699633699632,,0,-1,1768774233.045715
1768774233053.5278,1546.5201465201465,,0,-1,1768774233.0535278
1768774233061.3403,1528.2051282051282,,0,-1,1768774233.0613403
1768774233069.1528,1515.7509157509155,,0,-1,1768774233.0691528
1768774233076.965,1506.227106227106,,0,-1,1768774233.076965
1768774233084.7778,1501.098901098901,,0,-1,1768774233.0847778
1768774233092.5903,1499.6336996336995,,0,-1,1768774233.0925903
1768774233100.4028,1495.970695970696,,0,-1,1768774233.1004028
1768774233108.215,1492.3076923076922,,0,-1,1768774233.108215
1768774233116.0278,1488.6446886446886,,0,-1,1768774233.1160278
1768774233123.8403,1482.7838827838827,,0,-1,1768774233.1238403
1768774233131.6528,1479.120879120879,,0,-1,1768774233.1316528
1768774233139.465,1475.4578754578754,,0,-1,1768774233.139465
1768774233147.2778,1477.6556776556777,,0,-1,1768774233.1472778
1768774233155.0903,1479.120879120879,,0,-1,1768774233.1550903
1768774233162.9028,1478.3882783882782,,0,-1,1768774233.1629028
1768774233170.715,1473.992673992674,,0,-1,1768774233.170715
1768774233178.5278,1470.3296703296703,,0,-1,1768774233.1785278
1768774233186.3403,1469.5970695970695,,0,-1,1768774233.1863403
1768774233194.1528,1473.260073260073,,0,-1,1768774233.1941528
1768774233201.965,1476.923076923077,,0,-1,1768774233.201965
1768774233209.7778,1484.2490842490845,,0,-1,1768774233.2097778
1768774233217.5903,1488.6446886446886,,0,-1,1768774233.2175903
1768774233225.4028,1490.8424908424906,,0,-1,1768774233.2254028
1768774233233.215,1490.10989010989,,0,-1,1768774233.233215
1768774233241.0278,1484.2490842490845,,0,-1,1768774233.2410278
1768774233248.8403,1476.923076923077,,0,-1,1768774233.2488403
1768774233256.6528,1466.6666666666663,,0,-1,1768774233.2566528
1768774233264.465,1454.9450549450548,,0,-1,1768774233.264465
1768774233272.2778,1443.2234432234432,,0,-1,1768774233.2722778
1768774233280.0903,1432.9670329670328,,0,-1,1768774233.2800903
1768774233287.9028,1427.106227106227,,0,-1,1768774233.2879028
1768774233295.715,1418.3150183150185,,0,-1,1768774233.295715
1768774233303.5278,1410.2564102564102,,0,-1,1768774233.3035278
1768774233311.3403,1406.5934065934066,,0,-1,1768774233.3113403
1768774233319.1528,1402.197802197802,,0,-1,1768774233.3191528
1768774233326.965,1400.0,,0,-1,1768774233.326965
1768774233334.7778,1399.2673992673992,,0,-1,1768774233.3347778
1768774233342.5903,1398.5347985347985,,0,-1,1768774233.3425903
1768774233350.4028,1399.2673992673992,,0,-1,1768774233.3504028
1768774233358.215,1398.5347985347985,,0,-1,1768774233.358215
1768774233366.0278,1399.2673992673992,,0,-1,1768774233.3660278
1768774233373.8403,1399.2673992673992,,0,-1,1768774233.3738403
1768774233381.6528,1395.6043956043954,,0,-1,1768774233.3816528
1768774233389.465,1392.6739926739926,,0,-1,1768774233.389465
1768774233397.2778,1390.4761904761904,,0,-1,1768774233.3972778
1768774233405.0903,1386.080586080586,,0,-1,1768774233.4050903
1768774233412.9028,1383.150183150183,,0,-1,1768774233.4129028
1768774233420.715,1382.4175824175825,,0,-1,1768774233.420715
1768774233428.5278,1383.8827838827838,,0,-1,1768774233.4285278
1768774233436.3403,1383.150183150183,,0,-1,1768774233.4363403
1768774233444.1528,1378.7545787545787,,0,-1,1768774233.4441528
1768774233451.965,1373.6263736263736,,0,-1,1768774233.451965
1768774233459.7778,1369.230769230769,,0,-1,1768774233.4597778
1768774233467.5903,1368.4981684981683,,0,-1,1768774233.4675903
1768774233475.4028,1372.161172161172,,0,-1,1768774233.4754028
1768774233483.215,1376.5567765567764,,0,-1,1768774233.483215
1768774233491.0278,1379.4871794871794,,0,-1,1768774233.4910278
1768774233498.8403,1380.952380952381,,0,-1,1768774233.4988403
1768774233506.6528,1381.6849816849815,,0,-1,1768774233.5066528
1768774233514.465,1380.952380952381,,0,-1,1768774233.514465
1768774233522.2778,1375.091575091575,,0,-1,1768774233.5222778
1768774233530.0903,1367.032967032967,,0,-1,1768774233.5300903
1768774233537.9028,1356.7765567765566,,0,-1,1768774233.5379028
1768774233545.715,1344.3223443223442,,0,-1,1768774233.545715
1768774233553.5278,1333.3333333333333,,0,-1,1768774233.5535278
1768774233561.3403,1326.007326007326,,0,-1,1768774233.5613403
1768774233569.1528,1320.8791208791208,,0,-1,1768774233.5691528
1768774233576.965,1319.4139194139193,,0,-1,1768774233.576965
1768774233584.7778,1319.4139194139193,,0,-1,1768774233.5847778
1768774233592.5903,1322.3443223443223,,0,-1,1768774233.5925903
1768774233600.4028,1326.739926739927,,0,-1,1768774233.6004028
1768774233608.215,1336.263736263736,,0,-1,1768774233.608215
1768774233616.0278,1349.4505494505493,,0,-1,1768774233.6160278
1768774233623.8403,1366.3003663003662,,0,-1,1768774233.6238403
1768774233631.6528,1384.6153846153843,,0,-1,1768774233.6316528
1768774233639.465,1404.3956043956043,,0,-1,1768774233.639465
1768774233647.2778,1423.4432234432234,,0,-1,1768774233.6472778
1768774233655.0903,1443.956043956044,,0,-1,1768774233.6550903
1768774233662.9028,1465.201465201465,,0,-1,1768774233.6629028
1768774233670.715,1487.9120879120878,,0,-1,1768774233.670715
1768774233678.5278,1508.4249084249084,,0,-1,1768774233.6785278
1768774233686.3403,1524.5421245421244,,0,-1,1768774233.6863403
1768774233694.1528,1538.4615384615383,,0,-1,1768774233.6941528
1768774233701.965,1550.9157509157508,,0,-1,1768774233.701965
1768774233709.7778,1562.6373626373625,,0,-1,1768774233.7097778
1768774233717.5903,1576.5567765567764,,0,-1,1768774233.7175903
1768774233725.4028,1589.0109890109889,,0,-1,1768774233.7254028
1768774233733.215,1601.4652014652013,,0,-1,1768774233.733215
1768774233741.0278,1610.2564102564102,,0,-1,1768774233.7410278
1768774233748.8403,1616.8498168498168,,0,-1,1768774233.7488403
1768774233756.6528,1621.245421245421,,0,-1,1768774233.7566528
1768774233764.465,1624.9084249084249,,0,-1,1768774233.764465
1768774233772.2778,1627.8388278388277,,0,-1,1768774233.7722778
1768774233780.0903,1628.5714285714284,,0,-1,1768774233.7800903
1768774233787.9028,1627.8388278388277,,0,-1,1768774233.7879028
1768774233795.715,1624.9084249084249,,0,-1,1768774233.795715
1768774233803.5278,1618.3150183150185,,0,-1,1768774233.8035278
1768774233811.3403,1613.186813186813,,0,-1,1768774233.8113403
1768774233819.1528,1610.2564102564102,,0,-1,1768774233.8191528
1768774233826.965,1605.8608058608058,,0,-1,1768774233.826965
1768774233834.7778,1599.2673992673992,,0,-1,1768774233.8347778
1768774233842.5903,1595.6043956043954,,0,-1,1768774233.8425903
1768774233850.4028,1594.139194139194,,0,-1,1768774233.8504028
1768774233858.215,1592.6739926739926,,0,-1,1768774233.858215
1768774233866.0278,1589.0109890109889,,0,-1,1768774233.8660278
1768774233873.8403,1583.8827838827838,,0,-1,1768774233.8738403
1768774233881.6528,1579.4871794871794,,0,-1,1768774233.8816528
1768774233889.465,1572.8937728937728,,0,-1,1768774233.889465
1768774233897.2778,1562.6373626373625,,0,-1,1768774233.8972778
1768774233905.0903,1545.7875457875457,,0,-1,1768774233.9050903
1768774233912.9028,1530.4029304029302,,0,-1,1768774233.9129028
1768774233920.715,1517.216117216117,,0,-1,1768774233.920715
1768774233928.5278,1501.8315018315018,,0,-1,1768774233.9285278
1768774233936.3403,1491.5750915750914,,0,-1,1768774233.9363403
1768774233944.1528,1484.9816849816848,,0,-1,1768774233.9441528
1768774233951.965,1484.2490842490845,,0,-1,1768774233.951965
1768774233959.7778,1480.5860805860805,,0,-1,1768774233.9597778
1768774233967.5903,1476.190476190476,,0,-1,1768774233.9675903
1768774233975.4028,1475.4578754578754,,0,-1,1768774233.9754028
1768774233983.215,1473.992673992674,,0,-1,1768774233.983215
1768774233991.0278,1471.7948717948716,,0,-1,1768774233.9910278
1768774233998.8403,1469.5970695970695,,0,-1,1768774233.9988403
1768774234006.6528,1467.3992673992673,,0,-1,1768774234.0066528
1768774234014.465,1465.9340659340658,,0,-1,1768774234.014465
1768774234022.2778,1467.3992673992673,,0,-1,1768774234.0222778
1768774234030.0903,1466.6666666666663,,0,-1,1768774234.0300903
1768774234037.9028,1463.7362637362637,,0,-1,1768774234.0379028
1768774234045.715,1459.3406593406592,,0,-1,1768774234.045715
1768774234053.5278,1452.014652014652,,0,-1,1768774234.0535278
1768774234061.3403,1443.2234432234432,,0,-1,1768774234.0613403
1768774234069.1528,1434.4322344322345,,0,-1,1768774234.0691528
1768774234076.965,1427.106227106227,,0,-1,1768774234.076965
1768774234084.7778,1419.047619047619,,0,-1,1768774234.0847778
1768774234092.5903,1407.3260073260071,,0,-1,1768774234.0925903
1768774234100.4028,1397.8021978021975,,0,-1,1768774234.1004028
1768774234108.215,1389.7435897435896,,0,-1,1768774234.108215
1768774234116.0278,1385.3479853479853,,0,-1,1768774234.1160278
1768774234123.8403,1385.3479853479853,,0,-1,1768774234.1238403
1768774234131.6528,1386.8131868131868,,0,-1,1768774234.1316528
1768774234139.465,1388.278388278388,,0,-1,1768774234.139465
1768774234147.2778,1396.3369963369962,,0,-1,1768774234.1472778
1768774234155.0903,1397.8021978021975,,0,-1,1768774234.1550903
1768774234162.9028,1400.7326007326003,,0,-1,1768774234.1629028
1768774234170.715,1400.0,,0,-1,1768774234.170715
1768774234178.5278,1397.069597069597,,0,-1,1768774234.1785278
1768774234186.3403,1392.6739926739926,,0,-1,1768774234.1863403
1768774234194.1528,1389.0109890109889,,0,-1,1768774234.1941528
1768774234201.965,1380.2197802197802,,0,-1,1768774234.201965
1768774234209.7778,1370.6959706959706,,0,-1,1768774234.2097778
1768774234217.5903,1360.4395604395604,,0,-1,1768774234.2175903
1768774234225.4028,1352.3809523809523,,0,-1,1768774234.2254028
1768774234233.215,1345.7875457875457,,0,-1,1768774234.233215
1768774234241.0278,1341.3919413919414,,0,-1,1768774234.2410278
1768774234248.8403,1338.4615384615383,,0,-1,1768774234.2488403
1768774234256.6528,1335.5311355311355,,0,-1,1768774234.2566528
1768774234264.465,1334.065934065934,,0,-1,1768774234.264465
1768774234272.2778,1333.3333333333333,,0,-1,1768774234.2722778
1768774234280.0903,1336.263736263736,,0,-1,1768774234.2800903
1768774234287.9028,1339.92673992674,,0,-1,1768774234.2879028
1768774234295.715,1343.5897435897434,,0,-1,1768774234.295715
1768774234303.5278,1342.857142857143,,0,-1,1768774234.3035278
1768774234311.3403,1343.5897435897434,,0,-1,1768774234.3113403
1768774234319.1528,1340.6593406593406,,0,-1,1768774234.3191528
1768774234326.965,1342.857142857143,,0,-1,1768774234.326965
1768774234334.7778,1341.3919413919414,,0,-1,1768774234.3347778
1768774234342.5903,1334.7985347985348,,0,-1,1768774234.3425903
1768774234350.4028,1326.007326007326,,0,-1,1768774234.3504028
1768774234358.215,1318.6813186813183,,0,-1,1768774234.358215
1768774234366.0278,1315.018315018315,,0,-1,1768774234.3660278
1768774234373.8403,1317.216117216117,,0,-1,1768774234.3738403
1768774234381.6528,1320.14652014652,,0,-1,1768774234.3816528
1768774234389.465,1320.14652014652,,0,-1,1768774234.389465
1768774234397.2778,1319.4139194139193,,0,-1,1768774234.3972778
1768774234405.0903,1320.14652014652,,0,-1,1768774234.4050903
1768774234412.9028,1318.6813186813183,,0,-1,1768774234.4129028
1768774234420.715,1312.8205128205127,,0,-1,1768774234.420715
1768774234428.5278,1306.9597069597069,,0,-1,1768774234.4285278
1768774234436.3403,1302.5641025641023,,0,-1,1768774234.4363403
1768774234444.1528,1298.9010989010987,,0,-1,1768774234.4441528
1768774234451.965,1293.040293040293,,0,-1,1768774234.451965
1768774234459.7778,1287.179487179487,,0,-1,1768774234.4597778
1768774234467.5903,1282.051282051282,,0,-1,1768774234.4675903
1768774234475.4028,1278.3882783882782,,0,-1,1768774234.4754028
1768774234483.215,1275.4578754578754,,0,-1,1768774234.483215
1768774234491.0278,1272.5274725274724,,0,-1,1768774234.4910278
1768774234498.8403,1273.260073260073,,0,-1,1768774234.4988403
1768774234506.6528,1273.260073260073,,0,-1,1768774234.5066528
1768774234514.465,1269.5970695970695,,0,-1,1768774234.514465
1768774234522.2778,1271.062271062271,,0,-1,1768774234.5222778
1768774234530.0903,1279.120879120879,,0,-1,1768774234.5300903
1768774234537.9028,1291.5750915750914,,0,-1,1768774234.5379028
1768774234545.715,1302.5641025641023,,0,-1,1768774234.545715
1768774234553.5278,1313.5531135531137,,0,-1,1768774234.5535278
1768774234561.3403,1327.4725274725274,,0,-1,1768774234.5613403
1768774234569.1528,1345.054945054945,,0,-1,1768774234.5691528
1768774234576.965,1358.974358974359,,0,-1,1768774234.576965
1768774234584.7778,1367.032967032967,,0,-1,1768774234.5847778
1768774234592.5903,1374.3589743589744,,0,-1,1768774234.5925903
1768774234600.4028,1384.6153846153843,,0,-1,1768774234.6004028
1768774234608.215,1399.2673992673992,,0,-1,1768774234.608215
1768774234616.0278,1413.1868131868132,,0,-1,1768774234.6160278
1768774234623.8403,1427.8388278388277,,0,-1,1768774234.6238403
1768774234631.6528,1446.153846153846,,0,-1,1768774234.6316528
1768774234639.465,1460.07326007326,,0,-1,1768774234.639465
1768774234647.2778,1471.7948717948716,,0,-1,1768774234.6472778
1768774234655.0903,1486.4468864468863,,0,-1,1768774234.6550903
1768774234662.9028,1504.0293040293038,,0,-1,1768774234.6629028
1768774234670.715,1515.7509157509155,,0,-1,1768774234.670715
1768774234678.5278,1522.3443223443223,,0,-1,1768774234.6785278
1768774234686.3403,1532.6007326007325,,0,-1,1768774234.6863403
1768774234694.1528,1539.92673992674,,0,-1,1768774234.6941528
1768774234701.965,1539.194139194139,,0,-1,1768774234.701965
1768774234709.7778,1535.5311355311355,,0,-1,1768774234.7097778
1768774234717.5903,1533.3333333333333,,0,-1,1768774234.7175903
1768774234725.4028,1532.6007326007325,,0,-1,1768774234.7254028
1768774234733.215,1528.2051282051282,,0,-1,1768774234.733215
1768774234741.0278,1519.4139194139193,,0,-1,1768774234.7410278
1768774234748.8403,1512.087912087912,,0,-1,1768774234.7488403
1768774234756.6528,1505.4945054945051,,0,-1,1768774234.7566528
1768774234764.465,1498.168498168498,,0,-1,1768774234.764465
1768774234772.2778,1490.8424908424906,,0,-1,1768774234.7722778
1768774234780.0903,1479.8534798534797,,0,-1,1768774234.7800903
1768774234787.9028,1471.7948717948716,,0,-1,1768774234.7879028
1768774234795.715,1469.5970695970695,,0,-1,1768774234.795715
1768774234803.5278,1468.8644688644688,,0,-1,1768774234.8035278
1768774234811.3403,1465.9340659340658,,0,-1,1768774234.8113403
1768774234819.1528,1460.805860805861,,0,-1,1768774234.8191528
1768774234826.965,1458.6080586080584,,0,-1,1768774234.826965
1768774234834.7778,1456.4102564102564,,0,-1,1768774234.8347778
1768774234842.5903,1450.5494505494505,,0,-1,1768774234.8425903
1768774234850.4028,1445.4212454212454,,0,-1,1768774234.8504028
1768774234858.215,1440.29304029304,,0,-1,1768774234.858215
1768774234866.0278,1432.9670329670328,,0,-1,1768774234.8660278
1768774234873.8403,1421.245421245421,,0,-1,1768774234.8738403
1768774234881.6528,1413.1868131868132,,0,-1,1768774234.8816528
1768774234889.465,1408.7912087912086,,0,-1,1768774234.889465
1768774234897.2778,1402.197802197802,,0,-1,1768774234.8972778
1768774234905.0903,1402.9304029304028,,0,-1,1768774234.9050903
1768774234912.9028,1403.6630036630036,,0,-1,1768774234.9129028
1768774234920.715,1399.2673992673992,,0,-1,1768774234.920715
1768774234928.5278,1398.5347985347985,,0,-1,1768774234.9285278
1768774234936.3403,1394.8717948717947,,0,-1,1768774234.9363403
1768774234944.1528,1391.2087912087911,,0,-1,1768774234.9441528
1768774234951.965,1391.941391941392,,0,-1,1768774234.951965
1768774234959.7778,1387.5457875457876,,0,-1,1768774234.9597778
1768774234967.5903,1386.080586080586,,0,-1,1768774234.9675903
1768774234975.4028,1382.4175824175825,,0,-1,1768774234.9754028
1768774234983.215,1376.5567765567764,,0,-1,1768774234.983215
1768774234991.0278,1374.3589743589744,,0,-1,1768774234.9910278
1768774234998.8403,1371.428571428571,,0,-1,1768774234.9988403
1768774235006.6528,1365.5677655677655,,0,-1,1768774235.0066528
1768774235014.465,1366.3003663003662,,0,-1,1768774235.014465
1768774235022.2778,1363.3699633699632,,0,-1,1768774235.0222778
1768774235030.0903,1361.1721611721612,,0,-1,1768774235.0300903
1768774235037.9028,1362.6373626373625,,0,-1,1768774235.0379028
1768774235045.715,1361.904761904762,,0,-1,1768774235.045715
1768774235053.5278,1353.8461538461538,,0,-1,1768774235.0535278
1768774235061.3403,1347.2527472527472,,0,-1,1768774235.0613403
1768774235069.1528,1339.194139194139,,0,-1,1768774235.0691528
1768774235076.965,1328.937728937729,,0,-1,1768774235.076965
1768774235084.7778,1320.8791208791208,,0,-1,1768774235.0847778
1768774235092.5903,1315.7509157509155,,0,-1,1768774235.0925903
1768774235100.4028,1316.4835164835165,,0,-1,1768774235.1004028
1768774235108.215,1317.216117216117,,0,-1,1768774235.108215
1768774235116.0278,1316.4835164835165,,0,-1,1768774235.1160278
1768774235123.8403,1309.89010989011,,0,-1,1768774235.1238403
1768774235131.6528,1305.4945054945051,,0,-1,1768774235.1316528
1768774235139.465,1301.098901098901,,0,-1,1768774235.139465
1768774235147.2778,1299.6336996336995,,0,-1,1768774235.1472778
1768774235155.0903,1301.098901098901,,0,-1,1768774235.1550903
1768774235162.9028,1299.6336996336995,,0,-1,1768774235.1629028
1768774235170.715,1298.168498168498,,0,-1,1768774235.170715
1768774235178.5278,1295.2380952380952,,0,-1,1768774235.1785278
1768774235186.3403,1295.970695970696,,0,-1,1768774235.1863403
1768774235194.1528,1289.3772893772891,,0,-1,1768774235.1941528
1768774235201.965,1287.9120879120878,,0,-1,1768774235.201965
1768774235209.7778,1282.051282051282,,0,-1,1768774235.2097778
1768774235217.5903,1279.8534798534797,,0,-1,1768774235.2175903
1768774235225.4028,1276.923076923077,,0,-1,1768774235.2254028
1768774235233.215,1281.3186813186812,,0,-1,1768774235.233215
1768774235241.0278,1279.8534798534797,,0,-1,1768774235.2410278
1768774235248.8403,1282.7838827838827,,0,-1,1768774235.2488403
1768774235256.6528,1282.051282051282,,0,-1,1768774235.2566528
1768774235264.465,1285.7142857142856,,0,-1,1768774235.264465
1768774235272.2778,1282.7838827838827,,0,-1,1768774235.2722778
1768774235280.0903,1284.2490842490845,,0,-1,1768774235.2800903
1768774235287.9028,1277.6556776556777,,0,-1,1768774235.2879028
1768774235295.715,1273.992673992674,,0,-1,1768774235.295715
1768774235303.5278,1265.2014652014652,,0,-1,1768774235.3035278
1768774235311.3403,1261.5384615384614,,0,-1,1768774235.3113403
1768774235319.1528,1256.4102564102564,,0,-1,1768774235.3191528
1768774235326.965,1257.142857142857,,0,-1,1768774235.326965
1768774235334.7778,1257.142857142857,,0,-1,1768774235.3347778
1768774235342.5903,1263.003663003663,,0,-1,1768774235.3425903
1768774235350.4028,1265.2014652014652,,0,-1,1768774235.3504028
1768774235358.215,1268.8644688644688,,0,-1,1768774235.358215
1768774235366.0278,1267.3992673992673,,0,-1,1768774235.3660278
1768774235373.8403,1268.8644688644688,,0,-1,1768774235.3738403
1768774235381.6528,1263.7362637362637,,0,-1,1768774235.3816528
1768774235389.465,1261.5384615384614,,0,-1,1768774235.389465
1768774235397.2778,1258.6080586080586,,0,-1,1768774235.3972778
1768774235405.0903,1257.875457875458,,0,-1,1768774235.4050903
1768774235412.9028,1254.212454212454,,0,-1,1768774235.4129028
1768774235420.715,1252.7472527472526,,0,-1,1768774235.420715
1768774235428.5278,1253.479853479853,,0,-1,1768774235.4285278
1768774235436.3403,1249.084249084249,,0,-1,1768774235.4363403
1768774235444.1528,1241.0256410256409,,0,-1,1768774235.4441528
1768774235451.965,1236.6300366300366,,0,-1,1768774235.451965
1768774235459.7778,1234.4322344322345,,0,-1,1768774235.4597778
1768774235467.5903,1232.967032967033,,0,-1,1768774235.4675903
1768774235475.4028,1236.6300366300366,,0,-1,1768774235.4754028
1768774235483.215,1238.8278388278388,,0,-1,1768774235.483215
1768774235491.0278,1242.4908424908424,,0,-1,1768774235.4910278
1768774235498.8403,1243.956043956044,,0,-1,1768774235.4988403
1768774235506.6528,1241.7582417582416,,0,-1,1768774235.5066528
1768774235514.465,1238.8278388278388,,0,-1,1768774235.514465
1768774235522.2778,1232.2344322344322,,0,-1,1768774235.5222778
1768774235530.0903,1228.5714285714284,,0,-1,1768774235.5300903
1768774235537.9028,1227.106227106227,,0,-1,1768774235.5379028
1768774235545.715,1230.7692307692307,,0,-1,1768774235.545715
1768774235553.5278,1235.164835164835,,0,-1,1768774235.5535278
1768774235561.3403,1241.7582417582416,,0,-1,1768774235.5613403
1768774235569.1528,1246.8864468864467,,0,-1,1768774235.5691528
1768774235576.965,1249.8168498168498,,0,-1,1768774235.576965
1768774235584.7778,1252.014652014652,,0,-1,1768774235.5847778
1768774235592.5903,1253.479853479853,,0,-1,1768774235.5925903
1768774235600.4028,1258.6080586080586,,0,-1,1768774235.6004028
1768774235608.215,1260.07326007326,,0,-1,1768774235.608215
1768774235616.0278,1262.2710622710622,,0,-1,1768774235.6160278
1768774235623.8403,1254.212454212454,,0,-1,1768774235.6238403
1768774235631.6528,1250.5494505494505,,0,-1,1768774235.6316528
1768774235639.465,1246.8864468864467,,0,-1,1768774235.639465
1768774235647.2778,1246.153846153846,,0,-1,1768774235.6472778
1768774235655.0903,1252.7472527472526,,0,-1,1768774235.6550903
1768774235662.9028,1263.003663003663,,0,-1,1768774235.6629028
1768774235670.715,1282.051282051282,,0,-1,1768774235.670715
1768774235678.5278,1301.098901098901,,0,-1,1768774235.6785278
1768774235686.3403,1320.14652014652,,0,-1,1768774235.6863403
1768774235694.1528,1331.8681318681315,,0,-1,1768774235.6941528
1768774235701.965,1340.6593406593406,,0,-1,1768774235.701965
1768774235709.7778,1346.5201465201465,,0,-1,1768774235.7097778
1768774235717.5903,1347.2527472527472,,0,-1,1768774235.7175903
1768774235725.4028,1346.5201465201465,,0,-1,1768774235.7254028
1768774235733.215,1342.857142857143,,0,-1,1768774235.733215
1768774235741.0278,1345.7875457875457,,0,-1,1768774235.7410278
1768774235748.8403,1345.054945054945,,0,-1,1768774235.7488403
1768774235756.6528,1347.2527472527472,,0,-1,1768774235.7566528
1768774235764.465,1345.054945054945,,0,-1,1768774235.764465
1768774235772.2778,1345.7875457875457,,0,-1,1768774235.7722778
1768774235780.0903,1348.7179487179487,,0,-1,1768774235.7800903
1768774235787.9028,1347.985347985348,,0,-1,1768774235.7879028
1768774235795.715,1353.113553113553,,0,-1,1768774235.795715
1768774235803.5278,1356.7765567765566,,0,-1,1768774235.8035278
1768774235811.3403,1358.241758241758,,0,-1,1768774235.8113403
1768774235819.1528,1364.102564102564,,0,-1,1768774235.8191528
1768774235826.965,1363.3699633699632,,0,-1,1768774235.826965
1768774235834.7778,1360.4395604395604,,0,-1,1768774235.8347778
1768774235842.5903,1360.4395604395604,,0,-1,1768774235.8425903
1768774235850.4028,1361.904761904762,,0,-1,1768774235.8504028
1768774235858.215,1358.974358974359,,0,-1,1768774235.858215
1768774235866.0278,1361.1721611721612,,0,-1,1768774235.8660278
1768774235873.8403,1361.1721611721612,,0,-1,1768774235.8738403
1768774235881.6528,1358.974358974359,,0,-1,1768774235.8816528
1768774235889.465,1356.7765567765566,,0,-1,1768774235.889465
1768774235897.2778,1352.3809523809523,,0,-1,1768774235.8972778
1768774235905.0903,1342.857142857143,,0,-1,1768774235.9050903
1768774235912.9028,1332.6007326007325,,0,-1,1768774235.9129028
1768774235920.715,1328.937728937729,,0,-1,1768774235.920715
1768774235928.5278,1323.8095238095236,,0,-1,1768774235.9285278
1768774235936.3403,1317.9487179487178,,0,-1,1768774235.9363403
1768774235944.1528,1317.9487179487178,,0,-1,1768774235.9441528
1768774235951.965,1315.018315018315,,0,-1,1768774235.951965
1768774235959.7778,1308.4249084249084,,0,-1,1768774235.9597778
1768774235967.5903,1300.3663003663005,,0,-1,1768774235.9675903
1768774235975.4028,1294.5054945054944,,0,-1,1768774235.9754028
1768774235983.215,1290.10989010989,,0,-1,1768774235.983215
1768774235991.0278,1291.5750915750914,,0,-1,1768774235.9910278
1768774235998.8403,1299.6336996336995,,0,-1,1768774235.9988403
1768774236006.6528,1304.0293040293038,,0,-1,1768774236.0066528
1768774236014.465,1309.89010989011,,0,-1,1768774236.014465
1768774236022.2778,1319.4139194139193,,0,-1,1768774236.0222778
1768774236030.0903,1331.8681318681315,,0,-1,1768774236.0300903
1768774236037.9028,1340.6593406593406,,0,-1,1768774236.0379028
1768774236045.715,1347.2527472527472,,0,-1,1768774236.045715
1768774236053.5278,1351.6483516483515,,0,-1,1768774236.0535278
1768774236061.3403,1351.6483516483515,,0,-1,1768774236.0613403
1768774236069.1528,1341.3919413919414,,0,-1,1768774236.0691528
1768774236076.965,1329.6703296703297,,0,-1,1768774236.076965
1768774236084.7778,1320.8791208791208,,0,-1,1768774236.0847778
1768774236092.5903,1308.4249084249084,,0,-1,1768774236.0925903
1768774236100.4028,1297.4358974358977,,0,-1,1768774236.1004028
1768774236108.215,1292.3076923076922,,0,-1,1768774236.108215
1768774236116.0278,1284.9816849816848,,0,-1,1768774236.1160278
1768774236123.8403,1275.4578754578754,,0,-1,1768774236.1238403
1768774236131.6528,1258.6080586080586,,0,-1,1768774236.1316528
1768774236139.465,1238.8278388278388,,0,-1,1768774236.139465
1768774236147.2778,1224.9084249084249,,0,-1,1768774236.1472778
1768774236155.0903,1219.047619047619,,0,-1,1768774236.1550903
1768774236162.9028,1217.5824175824175,,0,-1,1768774236.1629028
1768774236170.715,1217.5824175824175,,0,-1,1768774236.170715
1768774236178.5278,1223.4432234432234,,0,-1,1768774236.1785278
1768774236186.3403,1230.03663003663,,0,-1,1768774236.1863403
1768774236194.1528,1238.095238095238,,0,-1,1768774236.1941528
1768774236201.965,1243.956043956044,,0,-1,1768774236.201965
1768774236209.7778,1247.6190476190477,,0,-1,1768774236.2097778
1768774236217.5903,1247.6190476190477,,0,-1,1768774236.2175903
1768774236225.4028,1244.688644688645,,0,-1,1768774236.2254028
1768774236233.215,1238.8278388278388,,0,-1,1768774236.233215
1768774236241.0278,1235.164835164835,,0,-1,1768774236.2410278
1768774236248.8403,1232.2344322344322,,0,-1,1768774236.2488403
1768774236256.6528,1231.5018315018317,,0,-1,1768774236.2566528
1768774236264.465,1233.6996336996335,,0,-1,1768774236.264465
1768774236272.2778,1238.8278388278388,,0,-1,1768774236.2722778
1768774236280.0903,1246.153846153846,,0,-1,1768774236.2800903
1768774236287.9028,1252.7472527472526,,0,-1,1768774236.2879028
1768774236295.715,1258.6080586080586,,0,-1,1768774236.295715
1768774236303.5278,1265.9340659340658,,0,-1,1768774236.3035278
1768774236311.3403,1271.062271062271,,0,-1,1768774236.3113403
1768774236319.1528,1273.992673992674,,0,-1,1768774236.3191528
1768774236326.965,1274.7252747252746,,0,-1,1768774236.326965
1768774236334.7778,1275.4578754578754,,0,-1,1768774236.3347778
1768774236342.5903,1273.260073260073,,0,-1,1768774236.3425903
1768774236350.4028,1264.4688644688645,,0,-1,1768774236.3504028
1768774236358.215,1253.479853479853,,0,-1,1768774236.358215
1768774236366.0278,1241.7582417582416,,0,-1,1768774236.3660278
1768774236373.8403,1232.2344322344322,,0,-1,1768774236.3738403
1768774236381.6528,1227.106227106227,,0,-1,1768774236.3816528
1768774236389.465,1224.9084249084249,,0,-1,1768774236.389465
1768774236397.2778,1223.4432234432234,,0,-1,1768774236.3972778
1768774236405.0903,1220.5128205128203,,0,-1,1768774236.4050903
1768774236412.9028,1214.6520146520145,,0,-1,1768774236.4129028
1768774236420.715,1213.1868131868132,,0,-1,1768774236.420715
1768774236428.5278,1214.6520146520145,,0,-1,1768774236.4285278
1768774236436.3403,1221.245421245421,,0,-1,1768774236.4363403
1768774236444.1528,1227.106227106227,,1,2,1768774236.4441528
1768774236451.965,1230.03663003663,,1,2,1768774236.451965
1768774236459.7778,1230.7692307692307,,1,2,1768774236.4597778
1768774236467.5903,1230.7692307692307,,1,2,1768774236.4675903
1768774236475.4028,1229.3040293040292,,1,2,1768774236.4754028
1768774236483.215,1230.7692307692307,,1,2,1768774236.483215
1768774236491.0278,1232.2344322344322,,1,2,1768774236.4910278
1768774236498.8403,1232.967032967033,,1,2,1768774236.4988403
1768774236506.6528,1233.6996336996335,,1,2,1768774236.5066528
1768774236514.465,1235.8974358974358,,1,2,1768774236.514465
1768774236522.2778,1241.0256410256409,,1,2,1768774236.5222778
1768774236530.0903,1247.6190476190477,,1,2,1768774236.5300903
1768774236537.9028,1254.9450549450548,,1,2,1768774236.5379028
1768774236545.715,1258.6080586080586,,1,2,1768774236.545715
1768774236553.5278,1258.6080586080586,,1,2,1768774236.5535278
1768774236561.3403,1258.6080586080586,,1,2,1768774236.5613403
1768774236569.1528,1257.142857142857,,1,2,1768774236.5691528
1768774236576.965,1254.212454212454,,1,2,1768774236.576965
1768774236584.7778,1250.5494505494505,,1,2,1768774236.5847778
1768774236592.5903,1248.3516483516482,,1,2,1768774236.5925903
1768774236600.4028,1244.688644688645,,1,2,1768774236.6004028
1768774236608.215,1238.8278388278388,,1,2,1768774236.608215
1768774236616.0278,1228.5714285714284,,1,2,1768774236.6160278
1768774236623.8403,1219.7802197802198,,1,2,1768774236.6238403
1768774236631.6528,1213.9194139194135,,1,2,1768774236.6316528
1768774236639.465,1207.3260073260074,,1,2,1768774236.639465
1768774236647.2778,1205.8608058608058,,1,2,1768774236.6472778
1768774236655.0903,1207.3260073260074,,1,2,1768774236.6550903
1768774236662.9028,1213.9194139194135,,1,2,1768774236.6629028
1768774236670.715,1224.9084249084249,,1,2,1768774236.670715
1768774236678.5278,1239.5604395604396,,1,2,1768774236.6785278
1768774236686.3403,1254.212454212454,,1,2,1768774236.6863403
1768774236694.1528,1265.2014652014652,,1,2,1768774236.6941528
1768774236701.965,1271.7948717948716,,1,2,1768774236.701965
1768774236709.7778,1283.5164835164835,,1,2,1768774236.7097778
1768774236717.5903,1292.3076923076922,,1,2,1768774236.7175903
1768774236725.4028,1298.9010989010987,,1,2,1768774236.7254028
1768774236733.215,1305.4945054945051,,1,2,1768774236.733215
1768774236741.0278,1310.6227106227104,,1,2,1768774236.7410278
1768774236748.8403,1315.7509157509155,,1,2,1768774236.7488403
1768774236756.6528,1319.4139194139193,,1,2,1768774236.7566528
1768774236764.465,1319.4139194139193,,1,2,1768774236.764465
1768774236772.2778,1320.14652014652,,1,2,1768774236.7722778
1768774236780.0903,1320.8791208791208,,1,2,1768774236.7800903
1768774236787.9028,1320.8791208791208,,1,2,1768774236.7879028
1768774236795.715,1319.4139194139193,,1,2,1768774236.795715
1768774236803.5278,1320.14652014652,,1,2,1768774236.8035278
1768774236811.3403,1319.4139194139193,,1,2,1768774236.8113403
1768774236819.1528,1318.6813186813183,,1,2,1768774236.8191528
1768774236826.965,1321.6117216117216,,1,2,1768774236.826965
1768774236834.7778,1325.2747252747251,,1,2,1768774236.8347778
1768774236842.5903,1327.4725274725274,,1,2,1768774236.8425903
1768774236850.4028,1328.2051282051282,,1,2,1768774236.8504028
1768774236858.215,1328.937728937729,,1,2,1768774236.858215
1768774236866.0278,1326.739926739927,,1,2,1768774236.8660278
1768774236873.8403,1325.2747252747251,,1,2,1768774236.8738403
1768774236881.6528,1324.5421245421244,,1,2,1768774236.8816528
1768774236889.465,1325.2747252747251,,1,2,1768774236.889465
1768774236897.2778,1327.4725274725274,,1,2,1768774236.8972778
1768774236905.0903,1328.2051282051282,,1,2,1768774236.9050903
1768774236912.9028,1327.4725274725274,,1,2,1768774236.9129028
1768774236920.715,1323.8095238095236,,1,2,1768774236.920715
1768774236928.5278,1317.9487179487178,,1,2,1768774236.9285278
1768774236936.3403,1314.2857142857142,,1,2,1768774236.9363403
1768774236944.1528,1309.1575091575091,,1,2,1768774236.9441528
1768774236951.965,1304.0293040293038,,1,2,1768774236.951965
1768774236959.7778,1298.168498168498,,1,2,1768774236.9597778
1768774236967.5903,1292.3076923076922,,1,2,1768774236.9675903
1768774236975.4028,1285.7142857142856,,1,2,1768774236.9754028
1768774236983.215,1281.3186813186812,,1,2,1768774236.983215
1768774236991.0278,1276.923076923077,,1,2,1768774236.9910278
1768774236998.8403,1274.7252747252746,,1,2,1768774236.9988403
1768774237006.6528,1271.7948717948716,,1,2,1768774237.0066528
1768774237014.465,1267.3992673992673,,1,2,1768774237.014465
1768774237022.2778,1261.5384615384614,,1,2,1768774237.0222778
1768774237030.0903,1256.4102564102564,,1,2,1768774237.0300903
1768774237037.9028,1255.6776556776556,,1,2,1768774237.0379028
1768774237045.715,1263.7362637362637,,1,2,1768774237.045715
1768774237053.5278,1271.7948717948716,,1,2,1768774237.0535278
1768774237061.3403,1281.3186813186812,,1,2,1768774237.0613403
1768774237069.1528,1293.040293040293,,1,2,1768774237.0691528
1768774237076.965,1301.098901098901,,1,2,1768774237.076965
1768774237084.7778,1304.7619047619046,,1,2,1768774237.0847778
1768774237092.5903,1306.9597069597069,,1,2,1768774237.0925903
1768774237100.4028,1310.6227106227104,,1,2,1768774237.1004028
1768774237108.215,1317.216117216117,,1,2,1768774237.108215
1768774237116.0278,1321.6117216117216,,1,2,1768774237.1160278
1768774237123.8403,1322.3443223443223,,1,2,1768774237.1238403
1768774237131.6528,1320.8791208791208,,1,2,1768774237.1316528
1768774237139.465,1316.4835164835165,,1,2,1768774237.139465
1768774237147.2778,1304.7619047619046,,1,2,1768774237.1472778
1768774237155.0903,1290.10989010989,,1,2,1768774237.1550903
1768774237162.9028,1274.7252747252746,,1,2,1768774237.1629028
1768774237170.715,1263.003663003663,,1,2,1768774237.170715
1768774237178.5278,1254.9450549450548,,1,2,1768774237.1785278
1768774237186.3403,1250.5494505494505,,1,2,1768774237.1863403
1768774237194.1528,1246.8864468864467,,1,2,1768774237.1941528
1768774237201.965,1246.153846153846,,1,2,1768774237.201965
1768774237209.7778,1246.8864468864467,,1,2,1768774237.2097778
1768774237217.5903,1247.6190476190477,,1,2,1768774237.2175903
1768774237225.4028,1251.2820512820513,,1,2,1768774237.2254028
1768774237233.215,1254.9450549450548,,1,2,1768774237.233215
1768774237241.0278,1258.6080586080586,,1,2,1768774237.2410278
1768774237248.8403,1263.7362637362637,,1,2,1768774237.2488403
1768774237256.6528,1266.6666666666663,,1,2,1768774237.2566528
1768774237264.465,1266.6666666666663,,1,2,1768774237.264465
1768774237272.2778,1265.2014652014652,,1,2,1768774237.2722778
1768774237280.0903,1260.805860805861,,1,2,1768774237.2800903
1768774237287.9028,1257.875457875458,,1,2,1768774237.2879028
1768774237295.715,1252.7472527472526,,1,2,1768774237.295715
1768774237303.5278,1246.8864468864467,,1,2,1768774237.3035278
1768774237311.3403,1241.0256410256409,,1,2,1768774237.3113403
1768774237319.1528,1234.4322344322345,,1,2,1768774237.3191528
1768774237326.965,1234.4322344322345,,1,2,1768774237.326965
1768774237334.7778,1237.362637362637,,1,2,1768774237.3347778
1768774237342.5903,1241.7582417582416,,1,2,1768774237.3425903
1768774237350.4028,1245.4212454212454,,1,2,1768774237.3504028
1768774237358.215,1249.8168498168498,,1,2,1768774237.358215
1768774237366.0278,1249.084249084249,,1,2,1768774237.3660278
1768774237373.8403,1244.688644688645,,1,2,1768774237.3738403
1768774237381.6528,1242.4908424908424,,1,2,1768774237.3816528
1768774237389.465,1241.7582417582416,,1,2,1768774237.389465
1768774237397.2778,1242.4908424908424,,1,2,1768774237.3972778
1768774237405.0903,1243.956043956044,,1,2,1768774237.4050903
1768774237412.9028,1245.4212454212454,,1,2,1768774237.4129028
1768774237420.715,1243.956043956044,,1,2,1768774237.420715
1768774237428.5278,1241.7582417582416,,1,2,1768774237.4285278
1768774237436.3403,1236.6300366300366,,1,2,1768774237.4363403
1768774237444.1528,1232.967032967033,,1,2,1768774237.4441528
1768774237451.965,1231.5018315018317,,1,2,1768774237.451965
1768774237459.7778,1230.7692307692307,,1,2,1768774237.4597778
1768774237467.5903,1230.7692307692307,,1,2,1768774237.4675903
1768774237475.4028,1227.8388278388277,,1,2,1768774237.4754028
1768774237483.215,1226.3736263736264,,1,2,1768774237.483215
1768774237491.0278,1227.106227106227,,1,2,1768774237.4910278
1768774237498.8403,1230.03663003663,,1,2,1768774237.4988403
1768774237506.6528,1236.6300366300366,,1,2,1768774237.5066528
1768774237514.465,1238.8278388278388,,1,2,1768774237.514465
1768774237522.2778,1238.095238095238,,1,2,1768774237.5222778
1768774237530.0903,1241.0256410256409,,1,2,1768774237.5300903
1768774237537.9028,1246.153846153846,,1,2,1768774237.5379028
1768774237545.715,1247.6190476190477,,1,2,1768774237.545715
1768774237553.5278,1248.3516483516482,,1,2,1768774237.5535278
1768774237561.3403,1251.2820512820513,,1,2,1768774237.5613403
1768774237569.1528,1254.9450549450548,,1,2,1768774237.5691528
1768774237576.965,1251.2820512820513,,1,2,1768774237.576965
1768774237584.7778,1249.8168498168498,,1,2,1768774237.5847778
1768774237592.5903,1253.479853479853,,1,2,1768774237.5925903
1768774237600.4028,1257.875457875458,,1,2,1768774237.6004028
1768774237608.215,1265.2014652014652,,1,2,1768774237.608215
1768774237616.0278,1270.3296703296703,,1,2,1768774237.6160278
1768774237623.8403,1266.6666666666663,,1,2,1768774237.6238403
1768774237631.6528,1264.4688644688645,,1,2,1768774237.6316528
1768774237639.465,1265.9340659340658,,1,2,1768774237.639465
1768774237647.2778,1268.8644688644688,,1,2,1768774237.6472778
1768774237655.0903,1273.992673992674,,1,2,1768774237.6550903
1768774237662.9028,1277.6556776556777,,1,2,1768774237.6629028
1768774237670.715,1281.3186813186812,,1,2,1768774237.670715
1768774237678.5278,1287.179487179487,,1,2,1768774237.6785278
1768774237686.3403,1291.5750915750914,,1,2,1768774237.6863403
1768774237694.1528,1293.040293040293,,1,2,1768774237.6941528
1768774237701.965,1298.168498168498,,1,2,1768774237.701965
1768774237709.7778,1307.6923076923076,,1,2,1768774237.7097778
1768774237717.5903,1315.018315018315,,1,2,1768774237.7175903
1768774237725.4028,1321.6117216117216,,1,2,1768774237.7254028
1768774237733.215,1329.6703296703297,,1,2,1768774237.733215
1768774237741.0278,1336.263736263736,,1,2,1768774237.7410278
1768774237748.8403,1337.7289377289376,,1,2,1768774237.7488403
1768774237756.6528,1343.5897435897434,,1,2,1768774237.7566528
1768774237764.465,1346.5201465201465,,1,2,1768774237.764465
1768774237772.2778,1353.8461538461538,,1,2,1768774237.7722778
1768774237780.0903,1356.043956043956,,1,2,1768774237.7800903
1768774237787.9028,1360.4395604395604,,1,2,1768774237.7879028
1768774237795.715,1356.043956043956,,1,2,1768774237.795715
1768774237803.5278,1353.113553113553,,1,2,1768774237.8035278
1768774237811.3403,1345.054945054945,,1,2,1768774237.8113403
1768774237819.1528,1342.857142857143,,1,2,1768774237.8191528
1768774237826.965,1335.5311355311355,,1,2,1768774237.826965
1768774237834.7778,1334.065934065934,,1,2,1768774237.8347778
1768774237842.5903,1335.5311355311355,,1,2,1768774237.8425903
1768774237850.4028,1336.263736263736,,1,2,1768774237.8504028
1768774237858.215,1341.3919413919414,,1,2,1768774237.858215
1768774237866.0278,1338.4615384615383,,1,2,1768774237.8660278
1768774237873.8403,1334.7985347985348,,1,2,1768774237.8738403
1768774237881.6528,1325.2747252747251,,1,2,1768774237.8816528
1768774237889.465,1319.4139194139193,,1,2,1768774237.889465
1768774237897.2778,1309.1575091575091,,1,2,1768774237.8972778
1768774237905.0903,1304.0293040293038,,1,2,1768774237.9050903
1768774237912.9028,1297.4358974358977,,1,2,1768774237.9129028
1768774237920.715,1295.2380952380952,,1,2,1768774237.920715
1768774237928.5278,1293.040293040293,,1,2,1768774237.9285278
1768774237936.3403,1291.5750915750914,,1,2,1768774237.9363403
1768774237944.1528,1293.7728937728937,,1,2,1768774237.9441528
1768774237951.965,1295.970695970696,,1,2,1768774237.951965
1768774237959.7778,1294.5054945054944,,1,2,1768774237.9597778
1768774237967.5903,1299.6336996336995,,1,2,1768774237.9675903
1768774237975.4028,1303.2967032967033,,1,2,1768774237.9754028
1768774237983.215,1307.6923076923076,,1,2,1768774237.983215
1768774237991.0278,1312.8205128205127,,1,2,1768774237.9910278
1768774237998.8403,1313.5531135531137,,1,2,1768774237.9988403
1768774238006.6528,1316.4835164835165,,1,2,1768774238.0066528
1768774238014.465,1320.8791208791208,,1,2,1768774238.014465
1768774238022.2778,1320.14652014652,,1,2,1768774238.0222778
1768774238030.0903,1323.076923076923,,1,2,1768774238.0300903
1768774238037.9028,1319.4139194139193,,1,2,1768774238.0379028
1768774238045.715,1311.3553113553112,,1,2,1768774238.045715
1768774238053.5278,1301.098901098901,,1,2,1768774238.0535278
1768774238061.3403,1287.9120879120878,,1,2,1768774238.0613403
1768774238069.1528,1282.051282051282,,1,2,1768774238.0691528
1768774238076.965,1279.8534798534797,,1,2,1768774238.076965
1768774238084.7778,1277.6556776556777,,1,2,1768774238.0847778
1768774238092.5903,1282.051282051282,,1,2,1768774238.0925903
1768774238100.4028,1285.7142857142856,,1,2,1768774238.1004028
1768774238108.215,1297.4358974358977,,1,2,1768774238.108215
1768774238116.0278,1306.9597069597069,,1,2,1768774238.1160278
1768774238123.8403,1312.087912087912,,1,2,1768774238.1238403
1768774238131.6528,1320.14652014652,,1,2,1768774238.1316528
1768774238139.465,1326.007326007326,,1,2,1768774238.139465
1768774238147.2778,1326.739926739927,,1,2,1768774238.1472778
1768774238155.0903,1328.937728937729,,1,2,1768774238.1550903
1768774238162.9028,1325.2747252747251,,1,2,1768774238.1629028
1768774238170.715,1317.216117216117,,1,2,1768774238.170715
1768774238178.5278,1312.8205128205127,,1,2,1768774238.1785278
1768774238186.3403,1301.8315018315018,,1,2,1768774238.1863403
1768774238194.1528,1295.2380952380952,,1,2,1768774238.1941528
1768774238201.965,1285.7142857142856,,1,2,1768774238.201965
1768774238209.7778,1279.120879120879,,1,2,1768774238.2097778
1768774238217.5903,1276.190476190476,,1,2,1768774238.2175903
1768774238225.4028,1273.992673992674,,1,2,1768774238.2254028
1768774238233.215,1277.6556776556777,,1,2,1768774238.233215
1768774238241.0278,1279.8534798534797,,1,2,1768774238.2410278
1768774238248.8403,1280.5860805860805,,1,2,1768774238.2488403
1768774238256.6528,1284.2490842490845,,1,2,1768774238.2566528
1768774238264.465,1284.9816849816848,,1,2,1768774238.264465
1768774238272.2778,1284.2490842490845,,1,2,1768774238.2722778
1768774238280.0903,1286.4468864468863,,1,2,1768774238.2800903
1768774238287.9028,1282.051282051282,,1,2,1768774238.2879028
1768774238295.715,1279.8534798534797,,1,2,1768774238.295715
1768774238303.5278,1275.4578754578754,,1,2,1768774238.3035278
1768774238311.3403,1268.131868131868,,1,2,1768774238.3113403
1768774238319.1528,1266.6666666666663,,1,2,1768774238.3191528
1768774238326.965,1263.003663003663,,1,2,1768774238.326965
1768774238334.7778,1263.7362637362637,,1,2,1768774238.3347778
1768774238342.5903,1263.7362637362637,,1,2,1768774238.3425903
1768774238350.4028,1261.5384615384614,,1,2,1768774238.3504028
1768774238358.215,1268.8644688644688,,1,2,1768774238.358215
1768774238366.0278,1273.260073260073,,1,2,1768774238.3660278
1768774238373.8403,1283.5164835164835,,1,2,1768774238.3738403
1768774238381.6528,1290.10989010989,,1,2,1768774238.3816528
1768774238389.465,1293.7728937728937,,1,2,1768774238.389465
1768774238397.2778,1293.7728937728937,,1,2,1768774238.3972778
