Shimmer_6815_Timestamp_Unix_CAL,Shimmer_6815_PPG_A13_CAL,Unnamed: 2,inhale,inhale_id,epoch_sec
1768794780315.1245,12.454212454212453,,1,0,1768794780.3151245
1768794780322.937,73.99267399267399,,0,-1,1768794780.322937
1768794780330.7495,164.1025641025641,,0,-1,1768794780.3307495
1768794780338.562,263.003663003663,,0,-1,1768794780.338562
1768794780346.3745,365.5677655677656,,0,-1,1768794780.3463745
1768794780354.187,465.9340659340659,,0,-1,1768794780.354187
1768794780361.9995,555.3113553113553,,0,-1,1768794780.3619995
1768794780369.812,636.6300366300366,,0,-1,1768794780.369812
1768794780377.6245,709.1575091575091,,0,-1,1768794780.3776245
1768794780385.437,766.3003663003662,,0,-1,1768794780.385437
1768794780393.2495,817.5824175824175,,0,-1,1768794780.3932495
1768794780401.062,856.4102564102564,,0,-1,1768794780.401062
1768794780408.8745,892.3076923076923,,0,-1,1768794780.4088745
1768794780416.687,918.6813186813188,,0,-1,1768794780.416687
1768794780424.4995,936.2637362637362,,0,-1,1768794780.4244995
1768794780432.312,953.113553113553,,0,-1,1768794780.432312
1768794780440.1245,958.9743589743588,,0,-1,1768794780.4401245
1768794780447.937,963.3699633699632,,0,-1,1768794780.447937
1768794780455.7495,968.4981684981684,,0,-1,1768794780.4557495
1768794780463.562,973.6263736263736,,0,-1,1768794780.463562
1768794780471.3745,977.2893772893772,,0,-1,1768794780.4713745
1768794780479.187,989.7435897435896,,0,-1,1768794780.479187
1768794780486.9995,1005.8608058608058,,0,-1,1768794780.4869995
1768794780494.812,1024.175824175824,,0,-1,1768794780.494812
1768794780502.6245,1052.014652014652,,0,-1,1768794780.5026245
1768794780510.437,1082.7838827838827,,0,-1,1768794780.510437
1768794780518.2495,1112.8205128205127,,0,-1,1768794780.5182495
1768794780526.062,1145.054945054945,,0,-1,1768794780.526062
1768794780533.8745,1178.021978021978,,0,-1,1768794780.5338745
1768794780541.687,1206.5934065934066,,0,-1,1768794780.541687
1768794780549.4995,1236.6300366300366,,0,-1,1768794780.5494995
1768794780557.312,1261.5384615384614,,0,-1,1768794780.557312
1768794780565.1245,1280.5860805860805,,0,-1,1768794780.5651245
1768794780572.937,1293.7728937728937,,0,-1,1768794780.572937
1768794780580.7495,1298.9010989010987,,0,-1,1768794780.5807495
1768794780588.562,1308.4249084249084,,0,-1,1768794780.588562
1768794780596.3745,1311.3553113553112,,0,-1,1768794780.5963745
1768794780604.187,1317.9487179487178,,0,-1,1768794780.604187
1768794780611.9995,1319.4139194139193,,0,-1,1768794780.6119995
1768794780619.812,1320.8791208791208,,0,-1,1768794780.619812
1768794780627.6245,1321.6117216117216,,0,-1,1768794780.6276245
1768794780635.437,1318.6813186813183,,0,-1,1768794780.635437
1768794780643.2495,1315.7509157509155,,0,-1,1768794780.6432495
1768794780651.062,1315.018315018315,,0,-1,1768794780.651062
1768794780658.8745,1313.5531135531137,,0,-1,1768794780.6588745
1768794780666.687,1321.6117216117216,,0,-1,1768794780.666687
1768794780674.4995,1326.739926739927,,0,-1,1768794780.6744995
1768794780682.312,1329.6703296703297,,0,-1,1768794780.682312
1768794780690.1245,1329.6703296703297,,0,-1,1768794780.6901245
1768794780697.937,1321.6117216117216,,0,-1,1768794780.697937
1768794780705.7495,1314.2857142857142,,0,-1,1768794780.7057495
1768794780713.562,1302.5641025641023,,0,-1,1768794780.713562
1768794780721.3745,1290.10989010989,,0,-1,1768794780.7213745
1768794780729.187,1282.7838827838827,,0,-1,1768794780.729187
1768794780736.9995,1276.923076923077,,0,-1,1768794780.7369995
1768794780744.812,1271.062271062271,,0,-1,1768794780.744812
1768794780752.6245,1262.2710622710622,,0,-1,1768794780.7526245
1768794780760.437,1255.6776556776556,,0,-1,1768794780.760437
1768794780768.2495,1257.875457875458,,0,-1,1768794780.7682495
1768794780776.062,1260.805860805861,,0,-1,1768794780.776062
1768794780783.8745,1262.2710622710622,,0,-1,1768794780.7838745
1768794780791.687,1263.003663003663,,0,-1,1768794780.791687
1768794780799.4995,1264.4688644688645,,0,-1,1768794780.7994995
1768794780807.312,1268.8644688644688,,0,-1,1768794780.807312
1768794780815.1245,1272.5274725274724,,0,-1,1768794780.8151245
1768794780822.937,1275.4578754578754,,0,-1,1768794780.822937
1768794780830.7495,1277.6556776556777,,0,-1,1768794780.8307495
1768794780838.562,1279.120879120879,,0,-1,1768794780.838562
1768794780846.3745,1280.5860805860805,,0,-1,1768794780.8463745
1768794780854.187,1281.3186813186812,,0,-1,1768794780.854187
1768794780861.9995,1279.120879120879,,0,-1,1768794780.8619995
1768794780869.812,1273.992673992674,,0,-1,1768794780.869812
1768794780877.6245,1268.131868131868,,0,-1,1768794780.8776245
1768794780885.437,1259.3406593406592,,0,-1,1768794780.885437
1768794780893.2495,1253.479853479853,,0,-1,1768794780.8932495
1768794780901.062,1248.3516483516482,,0,-1,1768794780.901062
1768794780908.8745,1245.4212454212454,,0,-1,1768794780.9088745
1768794780916.687,1242.4908424908424,,0,-1,1768794780.916687
1768794780924.4995,1235.8974358974358,,0,-1,1768794780.9244995
1768794780932.312,1224.9084249084249,,0,-1,1768794780.932312
1768794780940.1245,1215.3846153846152,,0,-1,1768794780.9401245
1768794780947.937,1208.058608058608,,0,-1,1768794780.947937
1768794780955.7495,1202.9304029304028,,0,-1,1768794780.9557495
1768794780963.562,1199.2673992673992,,0,-1,1768794780.963562
1768794780971.3745,1194.1391941391942,,0,-1,1768794780.9713745
1768794780979.187,1193.4065934065934,,0,-1,1768794780.979187
1768794780986.9995,1194.8717948717947,,0,-1,1768794780.9869995
1768794780994.812,1196.3369963369962,,0,-1,1768794780.994812
1768794781002.6245,1194.1391941391942,,0,-1,1768794781.0026245
1768794781010.437,1188.278388278388,,0,-1,1768794781.010437
1768794781018.2495,1180.952380952381,,0,-1,1768794781.0182495
1768794781026.062,1177.2893772893772,,0,-1,1768794781.026062
1768794781033.8745,1172.8937728937728,,0,-1,1768794781.0338745
1768794781041.687,1169.9633699633698,,0,-1,1768794781.041687
1768794781049.4995,1170.6959706959706,,0,-1,1768794781.0494995
1768794781057.312,1172.161172161172,,0,-1,1768794781.057312
1768794781065.1245,1169.230769230769,,0,-1,1768794781.0651245
1768794781072.937,1165.5677655677655,,0,-1,1768794781.072937
1768794781080.7495,1156.043956043956,,0,-1,1768794781.0807495
1768794781088.562,1146.5201465201465,,0,-1,1768794781.088562
1768794781096.3745,1138.4615384615383,,0,-1,1768794781.0963745
1768794781104.187,1133.3333333333333,,0,-1,1768794781.104187
1768794781111.9995,1126.007326007326,,0,-1,1768794781.1119995
1768794781119.812,1119.4139194139193,,0,-1,1768794781.119812
1768794781127.6245,1115.7509157509155,,0,-1,1768794781.1276245
1768794781135.437,1112.8205128205127,,0,-1,1768794781.135437
1768794781143.2495,1112.087912087912,,0,-1,1768794781.1432495
1768794781151.062,1112.087912087912,,0,-1,1768794781.151062
1768794781158.8745,1111.3553113553112,,0,-1,1768794781.1588745
1768794781166.687,1108.4249084249084,,0,-1,1768794781.166687
1768794781174.4995,1105.4945054945051,,0,-1,1768794781.1744995
1768794781182.312,1102.5641025641023,,0,-1,1768794781.182312
1768794781190.1245,1098.168498168498,,0,-1,1768794781.1901245
1768794781197.937,1094.5054945054944,,0,-1,1768794781.197937
1768794781205.7495,1093.7728937728937,,0,-1,1768794781.2057495
1768794781213.562,1092.3076923076922,,0,-1,1768794781.213562
1768794781221.3745,1093.040293040293,,0,-1,1768794781.2213745
1768794781229.187,1095.970695970696,,0,-1,1768794781.229187
1768794781236.9995,1098.168498168498,,0,-1,1768794781.2369995
1768794781244.812,1102.5641025641023,,0,-1,1768794781.244812
1768794781252.6245,1109.1575091575091,,0,-1,1768794781.2526245
1768794781260.437,1115.018315018315,,0,-1,1768794781.260437
1768794781268.2495,1118.6813186813183,,0,-1,1768794781.2682495
1768794781276.062,1124.5421245421244,,0,-1,1768794781.276062
1768794781283.8745,1133.3333333333333,,0,-1,1768794781.2838745
1768794781291.687,1145.054945054945,,0,-1,1768794781.291687
1768794781299.4995,1164.102564102564,,0,-1,1768794781.2994995
1768794781307.312,1188.278388278388,,0,-1,1768794781.307312
1768794781315.1245,1210.989010989011,,0,-1,1768794781.3151245
1768794781322.937,1234.4322344322345,,0,-1,1768794781.322937
1768794781330.7495,1259.3406593406592,,0,-1,1768794781.3307495
1768794781338.562,1282.051282051282,,0,-1,1768794781.338562
1768794781346.3745,1302.5641025641023,,0,-1,1768794781.3463745
1768794781354.187,1329.6703296703297,,0,-1,1768794781.354187
1768794781361.9995,1349.4505494505493,,0,-1,1768794781.3619995
1768794781369.812,1368.4981684981683,,0,-1,1768794781.369812
1768794781377.6245,1383.150183150183,,0,-1,1768794781.3776245
1768794781385.437,1397.8021978021975,,0,-1,1768794781.385437
1768794781393.2495,1408.058608058608,,0,-1,1768794781.3932495
1768794781401.062,1419.047619047619,,0,-1,1768794781.401062
1768794781408.8745,1429.3040293040292,,0,-1,1768794781.4088745
1768794781416.687,1435.164835164835,,0,-1,1768794781.416687
1768794781424.4995,1438.095238095238,,0,-1,1768794781.4244995
1768794781432.312,1441.7582417582416,,0,-1,1768794781.432312
1768794781440.1245,1447.6190476190477,,0,-1,1768794781.4401245
1768794781447.937,1449.8168498168498,,0,-1,1768794781.447937
1768794781455.7495,1449.8168498168498,,0,-1,1768794781.4557495
1768794781463.562,1446.8864468864467,,0,-1,1768794781.463562
1768794781471.3745,1444.688644688645,,0,-1,1768794781.4713745
1768794781479.187,1441.7582417582416,,0,-1,1768794781.479187
1768794781486.9995,1438.095238095238,,0,-1,1768794781.4869995
1768794781494.812,1434.4322344322345,,0,-1,1768794781.494812
1768794781502.6245,1433.6996336996335,,0,-1,1768794781.5026245
1768794781510.437,1435.164835164835,,0,-1,1768794781.510437
1768794781518.2495,1435.164835164835,,0,-1,1768794781.5182495
1768794781526.062,1437.362637362637,,0,-1,1768794781.526062
1768794781533.8745,1438.095238095238,,0,-1,1768794781.5338745
1768794781541.687,1438.095238095238,,0,-1,1768794781.541687
1768794781549.4995,1436.6300366300366,,0,-1,1768794781.5494995
1768794781557.312,1432.2344322344322,,0,-1,1768794781.557312
1768794781565.1245,1423.4432234432234,,0,-1,1768794781.5651245
1768794781572.937,1412.4542124542124,,0,-1,1768794781.572937
1768794781580.7495,1400.0,,0,-1,1768794781.5807495
1768794781588.562,1391.2087912087911,,0,-1,1768794781.588562
1768794781596.3745,1386.8131868131868,,0,-1,1768794781.5963745
1768794781604.187,1387.5457875457876,,0,-1,1768794781.604187
1768794781611.9995,1387.5457875457876,,0,-1,1768794781.6119995
1768794781619.812,1384.6153846153843,,0,-1,1768794781.619812
1768794781627.6245,1378.7545787545787,,0,-1,1768794781.6276245
1768794781635.437,1374.3589743589744,,0,-1,1768794781.635437
1768794781643.2495,1370.6959706959706,,0,-1,1768794781.6432495
1768794781651.062,1369.9633699633698,,0,-1,1768794781.651062
1768794781658.8745,1372.161172161172,,0,-1,1768794781.6588745
1768794781666.687,1373.6263736263736,,0,-1,1768794781.666687
1768794781674.4995,1375.091575091575,,0,-1,1768794781.6744995
1768794781682.312,1371.428571428571,,0,-1,1768794781.682312
1768794781690.1245,1367.032967032967,,0,-1,1768794781.6901245
1768794781697.937,1360.4395604395604,,0,-1,1768794781.697937
1768794781705.7495,1353.8461538461538,,0,-1,1768794781.7057495
1768794781713.562,1346.5201465201465,,0,-1,1768794781.713562
1768794781721.3745,1335.5311355311355,,0,-1,1768794781.7213745
1768794781729.187,1326.007326007326,,0,-1,1768794781.729187
1768794781736.9995,1317.216117216117,,0,-1,1768794781.7369995
1768794781744.812,1312.8205128205127,,0,-1,1768794781.744812
1768794781752.6245,1311.3553113553112,,0,-1,1768794781.7526245
1768794781760.437,1311.3553113553112,,0,-1,1768794781.760437
1768794781768.2495,1310.6227106227104,,0,-1,1768794781.7682495
1768794781776.062,1309.1575091575091,,0,-1,1768794781.776062
1768794781783.8745,1305.4945054945051,,0,-1,1768794781.7838745
1768794781791.687,1301.8315018315018,,0,-1,1768794781.791687
1768794781799.4995,1296.7032967032967,,0,-1,1768794781.7994995
1768794781807.312,1291.5750915750914,,0,-1,1768794781.807312
1768794781815.1245,1284.2490842490845,,0,-1,1768794781.8151245
1768794781822.937,1278.3882783882782,,0,-1,1768794781.822937
1768794781830.7495,1272.5274725274724,,0,-1,1768794781.8307495
1768794781838.562,1268.8644688644688,,0,-1,1768794781.838562
1768794781846.3745,1265.9340659340658,,0,-1,1768794781.8463745
1768794781854.187,1261.5384615384614,,0,-1,1768794781.854187
1768794781861.9995,1256.4102564102564,,0,-1,1768794781.8619995
1768794781869.812,1252.7472527472526,,0,-1,1768794781.869812
1768794781877.6245,1250.5494505494505,,0,-1,1768794781.8776245
1768794781885.437,1245.4212454212454,,0,-1,1768794781.885437
1768794781893.2495,1241.7582417582416,,0,-1,1768794781.8932495
1768794781901.062,1235.164835164835,,0,-1,1768794781.901062
1768794781908.8745,1227.8388278388277,,0,-1,1768794781.9088745
1768794781916.687,1219.7802197802198,,0,-1,1768794781.916687
1768794781924.4995,1211.7216117216117,,0,-1,1768794781.9244995
1768794781932.312,1202.9304029304028,,0,-1,1768794781.932312
1768794781940.1245,1196.3369963369962,,0,-1,1768794781.9401245
1768794781947.937,1188.278388278388,,0,-1,1768794781.947937
1768794781955.7495,1182.4175824175825,,0,-1,1768794781.9557495
1768794781963.562,1179.4871794871794,,0,-1,1768794781.963562
1768794781971.3745,1178.021978021978,,0,-1,1768794781.9713745
1768794781979.187,1175.0915750915751,,0,-1,1768794781.979187
1768794781986.9995,1173.6263736263736,,0,-1,1768794781.9869995
1768794781994.812,1175.8241758241757,,0,-1,1768794781.994812
1768794782002.6245,1177.2893772893772,,0,-1,1768794782.0026245
1768794782010.437,1180.2197802197802,,0,-1,1768794782.010437
1768794782018.2495,1182.4175824175825,,0,-1,1768794782.0182495
1768794782026.062,1182.4175824175825,,0,-1,1768794782.026062
1768794782033.8745,1180.952380952381,,0,-1,1768794782.0338745
1768794782041.687,1180.952380952381,,0,-1,1768794782.041687
1768794782049.4995,1181.6849816849815,,0,-1,1768794782.0494995
1768794782057.312,1179.4871794871794,,0,-1,1768794782.057312
1768794782065.1245,1172.8937728937728,,0,-1,1768794782.0651245
1768794782072.937,1164.102564102564,,0,-1,1768794782.072937
1768794782080.7495,1151.6483516483515,,0,-1,1768794782.0807495
1768794782088.562,1142.124542124542,,0,-1,1768794782.088562
1768794782096.3745,1136.2637362637363,,0,-1,1768794782.0963745
1768794782104.187,1133.3333333333333,,0,-1,1768794782.104187
1768794782111.9995,1135.5311355311355,,0,-1,1768794782.1119995
1768794782119.812,1145.7875457875457,,0,-1,1768794782.119812
1768794782127.6245,1161.904761904762,,0,-1,1768794782.1276245
1768794782135.437,1179.4871794871794,,0,-1,1768794782.135437
1768794782143.2495,1197.8021978021975,,0,-1,1768794782.1432495
1768794782151.062,1213.1868131868132,,0,-1,1768794782.151062
1768794782158.8745,1229.3040293040292,,0,-1,1768794782.1588745
1768794782166.687,1248.3516483516482,,0,-1,1768794782.166687
1768794782174.4995,1267.3992673992673,,0,-1,1768794782.1744995
1768794782182.312,1284.9816849816848,,0,-1,1768794782.182312
1768794782190.1245,1303.2967032967033,,0,-1,1768794782.1901245
1768794782197.937,1321.6117216117216,,0,-1,1768794782.197937
1768794782205.7495,1339.92673992674,,0,-1,1768794782.2057495
1768794782213.562,1358.241758241758,,0,-1,1768794782.213562
1768794782221.3745,1372.161172161172,,0,-1,1768794782.2213745
1768794782229.187,1379.4871794871794,,0,-1,1768794782.229187
1768794782236.9995,1387.5457875457876,,0,-1,1768794782.2369995
1768794782244.812,1398.5347985347985,,0,-1,1768794782.244812
1768794782252.6245,1413.1868131868132,,0,-1,1768794782.2526245
1768794782260.437,1429.3040293040292,,0,-1,1768794782.260437
1768794782268.2495,1445.4212454212454,,0,-1,1768794782.2682495
1768794782276.062,1459.3406593406592,,0,-1,1768794782.276062
1768794782283.8745,1468.8644688644688,,0,-1,1768794782.2838745
1768794782291.687,1475.4578754578754,,0,-1,1768794782.291687
1768794782299.4995,1479.8534798534797,,0,-1,1768794782.2994995
1768794782307.312,1476.923076923077,,0,-1,1768794782.307312
1768794782315.1245,1471.062271062271,,0,-1,1768794782.3151245
1768794782322.937,1463.003663003663,,0,-1,1768794782.322937
1768794782330.7495,1455.6776556776556,,0,-1,1768794782.3307495
1768794782338.562,1445.4212454212454,,0,-1,1768794782.338562
1768794782346.3745,1435.8974358974358,,0,-1,1768794782.3463745
1768794782354.187,1425.6410256410256,,0,-1,1768794782.354187
1768794782361.9995,1421.9780219780218,,0,-1,1768794782.3619995
1768794782369.812,1419.047619047619,,0,-1,1768794782.369812
1768794782377.6245,1416.8498168498168,,0,-1,1768794782.3776245
1768794782385.437,1416.8498168498168,,0,-1,1768794782.385437
1768794782393.2495,1414.6520146520145,,0,-1,1768794782.3932495
1768794782401.062,1410.2564102564102,,0,-1,1768794782.401062
1768794782408.8745,1408.058608058608,,0,-1,1768794782.4088745
1768794782416.687,1405.8608058608058,,0,-1,1768794782.416687
1768794782424.4995,1402.9304029304028,,0,-1,1768794782.4244995
1768794782432.312,1402.197802197802,,0,-1,1768794782.432312
1768794782440.1245,1404.3956043956043,,0,-1,1768794782.4401245
1768794782447.937,1402.9304029304028,,0,-1,1768794782.447937
1768794782455.7495,1400.7326007326003,,0,-1,1768794782.4557495
1768794782463.562,1397.069597069597,,0,-1,1768794782.463562
1768794782471.3745,1393.4065934065934,,0,-1,1768794782.4713745
1768794782479.187,1390.4761904761904,,0,-1,1768794782.479187
1768794782486.9995,1388.278388278388,,0,-1,1768794782.4869995
1768794782494.812,1386.8131868131868,,0,-1,1768794782.494812
1768794782502.6245,1385.3479853479853,,0,-1,1768794782.5026245
1768794782510.437,1382.4175824175825,,0,-1,1768794782.510437
1768794782518.2495,1378.7545787545787,,0,-1,1768794782.5182495
1768794782526.062,1378.021978021978,,0,-1,1768794782.526062
1768794782533.8745,1377.2893772893772,,0,-1,1768794782.5338745
1768794782541.687,1371.428571428571,,0,-1,1768794782.541687
1768794782549.4995,1368.4981684981683,,0,-1,1768794782.5494995
1768794782557.312,1364.8351648351647,,0,-1,1768794782.557312
1768794782565.1245,1354.5787545787546,,0,-1,1768794782.5651245
1768794782572.937,1344.3223443223442,,0,-1,1768794782.572937
1768794782580.7495,1339.92673992674,,0,-1,1768794782.5807495
1768794782588.562,1333.3333333333333,,0,-1,1768794782.588562
1768794782596.3745,1323.076923076923,,0,-1,1768794782.5963745
1768794782604.187,1314.2857142857142,,0,-1,1768794782.604187
1768794782611.9995,1306.9597069597069,,0,-1,1768794782.6119995
1768794782619.812,1298.168498168498,,0,-1,1768794782.619812
1768794782627.6245,1287.9120879120878,,0,-1,1768794782.6276245
1768794782635.437,1279.120879120879,,0,-1,1768794782.635437
1768794782643.2495,1273.260073260073,,0,-1,1768794782.6432495
1768794782651.062,1267.3992673992673,,0,-1,1768794782.651062
1768794782658.8745,1262.2710622710622,,0,-1,1768794782.6588745
1768794782666.687,1261.5384615384614,,0,-1,1768794782.666687
1768794782674.4995,1268.131868131868,,0,-1,1768794782.6744995
1768794782682.312,1273.992673992674,,0,-1,1768794782.682312
1768794782690.1245,1274.7252747252746,,0,-1,1768794782.6901245
1768794782697.937,1274.7252747252746,,0,-1,1768794782.697937
1768794782705.7495,1267.3992673992673,,0,-1,1768794782.7057495
1768794782713.562,1250.5494505494505,,0,-1,1768794782.713562
1768794782721.3745,1239.5604395604396,,0,-1,1768794782.7213745
1768794782729.187,1231.5018315018317,,0,-1,1768794782.729187
1768794782736.9995,1226.3736263736264,,0,-1,1768794782.7369995
1768794782744.812,1225.6410256410256,,0,-1,1768794782.744812
1768794782752.6245,1229.3040293040292,,0,-1,1768794782.7526245
1768794782760.437,1228.5714285714284,,0,-1,1768794782.760437
1768794782768.2495,1228.5714285714284,,0,-1,1768794782.7682495
1768794782776.062,1227.8388278388277,,0,-1,1768794782.776062
1768794782783.8745,1223.4432234432234,,0,-1,1768794782.7838745
1768794782791.687,1218.3150183150185,,0,-1,1768794782.791687
1768794782799.4995,1213.1868131868132,,0,-1,1768794782.7994995
1768794782807.312,1213.9194139194135,,0,-1,1768794782.807312
1768794782815.1245,1214.6520146520145,,0,-1,1768794782.8151245
1768794782822.937,1214.6520146520145,,0,-1,1768794782.822937
1768794782830.7495,1221.9780219780218,,0,-1,1768794782.8307495
1768794782838.562,1224.9084249084249,,0,-1,1768794782.838562
1768794782846.3745,1231.5018315018317,,0,-1,1768794782.8463745
1768794782854.187,1232.967032967033,,0,-1,1768794782.854187
1768794782861.9995,1235.8974358974358,,0,-1,1768794782.8619995
1768794782869.812,1231.5018315018317,,0,-1,1768794782.869812
1768794782877.6245,1221.245421245421,,0,-1,1768794782.8776245
1768794782885.437,1209.5238095238094,,0,-1,1768794782.885437
1768794782893.2495,1197.8021978021975,,0,-1,1768794782.8932495
1768794782901.062,1186.8131868131868,,0,-1,1768794782.901062
1768794782908.8745,1179.4871794871794,,0,-1,1768794782.9088745
1768794782916.687,1170.6959706959706,,0,-1,1768794782.916687
1768794782924.4995,1168.4981684981683,,0,-1,1768794782.9244995
1768794782932.312,1161.904761904762,,0,-1,1768794782.932312
1768794782940.1245,1158.974358974359,,0,-1,1768794782.9401245
1768794782947.937,1153.8461538461538,,0,-1,1768794782.947937
1768794782955.7495,1148.7179487179487,,0,-1,1768794782.9557495
1768794782963.562,1146.5201465201465,,0,-1,1768794782.963562
1768794782971.3745,1145.7875457875457,,0,-1,1768794782.9713745
1768794782979.187,1144.3223443223442,,0,-1,1768794782.979187
1768794782986.9995,1141.3919413919414,,0,-1,1768794782.9869995
1768794782994.812,1135.5311355311355,,0,-1,1768794782.994812
1768794783002.6245,1131.8681318681315,,0,-1,1768794783.0026245
1768794783010.437,1123.8095238095236,,0,-1,1768794783.010437
1768794783018.2495,1126.007326007326,,0,-1,1768794783.0182495
1768794783026.062,1128.937728937729,,0,-1,1768794783.026062
1768794783033.8745,1134.065934065934,,0,-1,1768794783.0338745
1768794783041.687,1146.5201465201465,,0,-1,1768794783.041687
1768794783049.4995,1159.7069597069597,,0,-1,1768794783.0494995
1768794783057.312,1178.021978021978,,0,-1,1768794783.057312
1768794783065.1245,1198.5347985347985,,0,-1,1768794783.0651245
1768794783072.937,1218.3150183150185,,0,-1,1768794783.072937
1768794783080.7495,1240.29304029304,,0,-1,1768794783.0807495
1768794783088.562,1265.9340659340658,,0,-1,1768794783.088562
1768794783096.3745,1290.10989010989,,0,-1,1768794783.0963745
1768794783104.187,1320.8791208791208,,0,-1,1768794783.104187
1768794783111.9995,1346.5201465201465,,0,-1,1768794783.1119995
1768794783119.812,1364.8351648351647,,0,-1,1768794783.119812
1768794783127.6245,1383.8827838827838,,0,-1,1768794783.1276245
1768794783135.437,1402.197802197802,,0,-1,1768794783.135437
1768794783143.2495,1413.9194139194135,,0,-1,1768794783.1432495
1768794783151.062,1426.3736263736262,,0,-1,1768794783.151062
1768794783158.8745,1433.6996336996335,,0,-1,1768794783.1588745
1768794783166.687,1438.095238095238,,0,-1,1768794783.166687
1768794783174.4995,1446.153846153846,,0,-1,1768794783.1744995
1768794783182.312,1450.5494505494505,,0,-1,1768794783.182312
1768794783190.1245,1453.479853479853,,0,-1,1768794783.1901245
1768794783197.937,1457.875457875458,,0,-1,1768794783.197937
1768794783205.7495,1462.2710622710622,,0,-1,1768794783.2057495
1768794783213.562,1462.2710622710622,,0,-1,1768794783.213562
1768794783221.3745,1460.07326007326,,0,-1,1768794783.2213745
1768794783229.187,1460.07326007326,,0,-1,1768794783.229187
1768794783236.9995,1456.4102564102564,,0,-1,1768794783.2369995
1768794783244.812,1452.7472527472526,,0,-1,1768794783.244812
1768794783252.6245,1451.2820512820513,,0,-1,1768794783.2526245
1768794783260.437,1443.956043956044,,0,-1,1768794783.260437
1768794783268.2495,1441.7582417582416,,0,-1,1768794783.2682495
1768794783276.062,1435.8974358974358,,0,-1,1768794783.276062
1768794783283.8745,1432.2344322344322,,0,-1,1768794783.2838745
1768794783291.687,1432.2344322344322,,0,-1,1768794783.291687
1768794783299.4995,1426.3736263736262,,0,-1,1768794783.2994995
1768794783307.312,1417.5824175824175,,0,-1,1768794783.307312
1768794783315.1245,1411.7216117216117,,0,-1,1768794783.3151245
1768794783322.937,1402.197802197802,,0,-1,1768794783.322937
1768794783330.7495,1394.139194139194,,0,-1,1768794783.3307495
1768794783338.562,1386.080586080586,,0,-1,1768794783.338562
1768794783346.3745,1375.8241758241757,,0,-1,1768794783.3463745
1768794783354.187,1372.161172161172,,0,-1,1768794783.354187
1768794783361.9995,1374.3589743589744,,0,-1,1768794783.3619995
1768794783369.812,1378.021978021978,,0,-1,1768794783.369812
1768794783377.6245,1380.2197802197802,,0,-1,1768794783.3776245
1768794783385.437,1384.6153846153843,,0,-1,1768794783.385437
1768794783393.2495,1389.0109890109889,,0,-1,1768794783.3932495
1768794783401.062,1394.139194139194,,0,-1,1768794783.401062
1768794783408.8745,1397.069597069597,,0,-1,1768794783.4088745
1768794783416.687,1399.2673992673992,,0,-1,1768794783.416687
1768794783424.4995,1402.9304029304028,,1,1,1768794783.4244995
1768794783432.312,1405.128205128205,,1,1,1768794783.432312
1768794783440.1245,1404.3956043956043,,1,1,1768794783.4401245
1768794783447.937,1399.2673992673992,,1,1,1768794783.447937
1768794783455.7495,1394.139194139194,,1,1,1768794783.4557495
1768794783463.562,1390.4761904761904,,1,1,1768794783.463562
1768794783471.3745,1386.080586080586,,1,1,1768794783.4713745
1768794783479.187,1380.2197802197802,,1,1,1768794783.479187
1768794783486.9995,1369.9633699633698,,1,1,1768794783.4869995
1768794783494.812,1360.4395604395604,,1,1,1768794783.494812
1768794783502.6245,1354.5787545787546,,1,1,1768794783.5026245
1768794783510.437,1350.9157509157508,,1,1,1768794783.510437
1768794783518.2495,1348.7179487179487,,1,1,1768794783.5182495
1768794783526.062,1347.985347985348,,1,1,1768794783.526062
1768794783533.8745,1345.054945054945,,1,1,1768794783.5338745
1768794783541.687,1339.92673992674,,1,1,1768794783.541687
1768794783549.4995,1327.4725274725274,,1,1,1768794783.5494995
1768794783557.312,1309.89010989011,,1,1,1768794783.557312
1768794783565.1245,1287.9120879120878,,1,1,1768794783.5651245
1768794783572.937,1273.992673992674,,1,1,1768794783.572937
1768794783580.7495,1266.6666666666663,,1,1,1768794783.5807495
1768794783588.562,1263.003663003663,,1,1,1768794783.588562
1768794783596.3745,1257.875457875458,,1,1,1768794783.5963745
1768794783604.187,1257.142857142857,,1,1,1768794783.604187
1768794783611.9995,1260.07326007326,,1,1,1768794783.6119995
1768794783619.812,1261.5384615384614,,1,1,1768794783.619812
1768794783627.6245,1260.07326007326,,1,1,1768794783.6276245
1768794783635.437,1260.805860805861,,1,1,1768794783.635437
1768794783643.2495,1263.7362637362637,,1,1,1768794783.6432495
1768794783651.062,1265.9340659340658,,1,1,1768794783.651062
1768794783658.8745,1266.6666666666663,,1,1,1768794783.6588745
1768794783666.687,1266.6666666666663,,1,1,1768794783.666687
1768794783674.4995,1263.7362637362637,,1,1,1768794783.6744995
1768794783682.312,1258.6080586080586,,1,1,1768794783.682312
1768794783690.1245,1252.014652014652,,1,1,1768794783.6901245
1768794783697.937,1249.084249084249,,1,1,1768794783.697937
1768794783705.7495,1244.688644688645,,1,1,1768794783.7057495
1768794783713.562,1235.164835164835,,1,1,1768794783.713562
1768794783721.3745,1226.3736263736264,,1,1,1768794783.7213745
1768794783729.187,1218.3150183150185,,1,1,1768794783.729187
1768794783736.9995,1210.989010989011,,1,1,1768794783.7369995
1768794783744.812,1209.5238095238094,,1,1,1768794783.744812
1768794783752.6245,1209.5238095238094,,1,1,1768794783.7526245
1768794783760.437,1212.4542124542124,,1,1,1768794783.760437
1768794783768.2495,1215.3846153846152,,1,1,1768794783.7682495
1768794783776.062,1219.047619047619,,1,1,1768794783.776062
1768794783783.8745,1221.245421245421,,1,1,1768794783.7838745
1768794783791.687,1219.7802197802198,,1,1,1768794783.791687
1768794783799.4995,1218.3150183150185,,1,1,1768794783.7994995
1768794783807.312,1216.8498168498168,,1,1,1768794783.807312
1768794783815.1245,1213.1868131868132,,1,1,1768794783.8151245
1768794783822.937,1210.2564102564102,,1,1,1768794783.822937
1768794783830.7495,1208.7912087912086,,1,1,1768794783.8307495
1768794783838.562,1208.7912087912086,,1,1,1768794783.838562
1768794783846.3745,1210.989010989011,,1,1,1768794783.8463745
1768794783854.187,1214.6520146520145,,1,1,1768794783.854187
1768794783861.9995,1214.6520146520145,,1,1,1768794783.8619995
1768794783869.812,1211.7216117216117,,1,1,1768794783.869812
1768794783877.6245,1208.7912087912086,,1,1,1768794783.8776245
1768794783885.437,1204.3956043956043,,1,1,1768794783.885437
1768794783893.2495,1200.0,,1,1,1768794783.8932495
1768794783901.062,1200.0,,1,1,1768794783.901062
1768794783908.8745,1200.7326007326008,,1,1,1768794783.9088745
1768794783916.687,1197.069597069597,,1,1,1768794783.916687
1768794783924.4995,1191.2087912087911,,1,1,1768794783.9244995
1768794783932.312,1183.8827838827838,,1,1,1768794783.932312
1768794783940.1245,1173.6263736263736,,1,1,1768794783.9401245
1768794783947.937,1163.3699633699632,,1,1,1768794783.947937
1768794783955.7495,1154.5787545787546,,1,1,1768794783.9557495
1768794783963.562,1150.18315018315,,1,1,1768794783.963562
1768794783971.3745,1150.18315018315,,1,1,1768794783.9713745
1768794783979.187,1152.3809523809523,,1,1,1768794783.979187
1768794783986.9995,1157.5091575091574,,1,1,1768794783.9869995
1768794783994.812,1159.7069597069597,,1,1,1768794783.994812
1768794784002.6245,1158.241758241758,,1,1,1768794784.0026245
1768794784010.437,1155.311355311355,,1,1,1768794784.010437
1768794784018.2495,1153.113553113553,,1,1,1768794784.0182495
1768794784026.062,1156.7765567765566,,1,1,1768794784.026062
1768794784033.8745,1167.032967032967,,1,1,1768794784.0338745
1768794784041.687,1183.150183150183,,1,1,1768794784.041687
1768794784049.4995,1206.5934065934066,,1,1,1768794784.0494995
1768794784057.312,1233.6996336996335,,1,1,1768794784.057312
1768794784065.1245,1260.07326007326,,1,1,1768794784.0651245
1768794784072.937,1286.4468864468863,,1,1,1768794784.072937
1768794784080.7495,1314.2857142857142,,1,1,1768794784.0807495
1768794784088.562,1342.857142857143,,1,1,1768794784.088562
1768794784096.3745,1369.9633699633698,,1,1,1768794784.0963745
1768794784104.187,1397.069597069597,,1,1,1768794784.104187
1768794784111.9995,1420.5128205128203,,1,1,1768794784.1119995
1768794784119.812,1437.362637362637,,1,1,1768794784.119812
1768794784127.6245,1452.014652014652,,1,1,1768794784.1276245
1768794784135.437,1463.003663003663,,1,1,1768794784.135437
1768794784143.2495,1470.3296703296703,,1,1,1768794784.1432495
1768794784151.062,1475.4578754578754,,1,1,1768794784.151062
1768794784158.8745,1476.190476190476,,1,1,1768794784.1588745
1768794784166.687,1476.923076923077,,1,1,1768794784.166687
1768794784174.4995,1475.4578754578754,,1,1,1768794784.1744995
1768794784182.312,1473.260073260073,,1,1,1768794784.182312
1768794784190.1245,1470.3296703296703,,1,1,1768794784.1901245
1768794784197.937,1467.3992673992673,,1,1,1768794784.197937
1768794784205.7495,1466.6666666666663,,1,1,1768794784.2057495
1768794784213.562,1465.9340659340658,,1,1,1768794784.213562
1768794784221.3745,1465.9340659340658,,1,1,1768794784.2213745
1768794784229.187,1464.4688644688645,,1,1,1768794784.229187
1768794784236.9995,1463.003663003663,,1,1,1768794784.2369995
1768794784244.812,1462.2710622710622,,1,1,1768794784.244812
1768794784252.6245,1465.9340659340658,,1,1,1768794784.2526245
1768794784260.437,1471.062271062271,,1,1,1768794784.260437
1768794784268.2495,1474.7252747252746,,1,1,1768794784.2682495
1768794784276.062,1476.923076923077,,1,1,1768794784.276062
1768794784283.8745,1475.4578754578754,,1,1,1768794784.2838745
1768794784291.687,1468.8644688644688,,1,1,1768794784.291687
1768794784299.4995,1464.4688644688645,,1,1,1768794784.2994995
1768794784307.312,1461.5384615384614,,1,1,1768794784.307312
1768794784315.1245,1457.142857142857,,1,1,1768794784.3151245
1768794784322.937,1450.5494505494505,,1,1,1768794784.322937
1768794784330.7495,1444.688644688645,,1,1,1768794784.3307495
1768794784338.562,1439.5604395604394,,1,1,1768794784.338562
1768794784346.3745,1435.164835164835,,1,1,1768794784.3463745
1768794784354.187,1432.2344322344322,,1,1,1768794784.354187
1768794784361.9995,1431.5018315018317,,1,1,1768794784.3619995
1768794784369.812,1432.9670329670328,,1,1,1768794784.369812
1768794784377.6245,1432.9670329670328,,1,1,1768794784.3776245
1768794784385.437,1430.7692307692307,,1,1,1768794784.385437
1768794784393.2495,1430.03663003663,,1,1,1768794784.3932495
1768794784401.062,1430.03663003663,,1,1,1768794784.401062
1768794784408.8745,1430.03663003663,,1,1,1768794784.4088745
1768794784416.687,1432.2344322344322,,1,1,1768794784.416687
1768794784424.4995,1433.6996336996335,,1,1,1768794784.4244995
1768794784432.312,1435.164835164835,,1,1,1768794784.432312
1768794784440.1245,1435.164835164835,,1,1,1768794784.4401245
1768794784447.937,1432.9670329670328,,1,1,1768794784.447937
1768794784455.7495,1426.3736263736262,,1,1,1768794784.4557495
1768794784463.562,1420.5128205128203,,1,1,1768794784.463562
1768794784471.3745,1414.6520146520145,,1,1,1768794784.4713745
1768794784479.187,1408.7912087912086,,1,1,1768794784.479187
1768794784486.9995,1405.128205128205,,1,1,1768794784.4869995
1768794784494.812,1400.0,,1,1,1768794784.494812
1768794784502.6245,1391.2087912087911,,1,1,1768794784.5026245
1768794784510.437,1382.4175824175825,,1,1,1768794784.510437
1768794784518.2495,1371.428571428571,,1,1,1768794784.5182495
1768794784526.062,1358.241758241758,,1,1,1768794784.526062
1768794784533.8745,1349.4505494505493,,1,1,1768794784.5338745
1768794784541.687,1339.194139194139,,1,1,1768794784.541687
1768794784549.4995,1332.6007326007325,,1,1,1768794784.5494995
1768794784557.312,1325.2747252747251,,1,1,1768794784.557312
1768794784565.1245,1319.4139194139193,,1,1,1768794784.5651245
1768794784572.937,1315.018315018315,,1,1,1768794784.572937
1768794784580.7495,1309.89010989011,,1,1,1768794784.5807495
1768794784588.562,1309.1575091575091,,1,1,1768794784.588562
1768794784596.3745,1308.4249084249084,,1,1,1768794784.5963745
1768794784604.187,1307.6923076923076,,1,1,1768794784.604187
1768794784611.9995,1306.227106227106,,1,1,1768794784.6119995
1768794784619.812,1300.3663003663005,,1,1,1768794784.619812
1768794784627.6245,1295.2380952380952,,1,1,1768794784.6276245
1768794784635.437,1291.5750915750914,,1,1,1768794784.635437
1768794784643.2495,1290.10989010989,,1,1,1768794784.6432495
1768794784651.062,1290.10989010989,,1,1,1768794784.651062
1768794784658.8745,1287.179487179487,,1,1,1768794784.6588745
1768794784666.687,1284.9816849816848,,1,1,1768794784.666687
1768794784674.4995,1284.2490842490845,,1,1,1768794784.6744995
1768794784682.312,1285.7142857142856,,1,1,1768794784.682312
1768794784690.1245,1287.179487179487,,1,1,1768794784.6901245
1768794784697.937,1286.4468864468863,,1,1,1768794784.697937
1768794784705.7495,1282.7838827838827,,1,1,1768794784.7057495
1768794784713.562,1278.3882783882782,,1,1,1768794784.713562
1768794784721.3745,1273.992673992674,,1,1,1768794784.7213745
1768794784729.187,1270.3296703296703,,1,1,1768794784.729187
1768794784736.9995,1266.6666666666663,,1,1,1768794784.7369995
1768794784744.812,1263.003663003663,,1,1,1768794784.744812
1768794784752.6245,1257.875457875458,,1,1,1768794784.7526245
1768794784760.437,1250.5494505494505,,1,1,1768794784.760437
1768794784768.2495,1243.2234432234432,,1,1,1768794784.7682495
1768794784776.062,1237.362637362637,,1,1,1768794784.776062
1768794784783.8745,1232.967032967033,,1,1,1768794784.7838745
1768794784791.687,1228.5714285714284,,1,1,1768794784.791687
1768794784799.4995,1225.6410256410256,,1,1,1768794784.7994995
1768794784807.312,1220.5128205128203,,1,1,1768794784.807312
1768794784815.1245,1216.117216117216,,1,1,1768794784.8151245
1768794784822.937,1211.7216117216117,,1,1,1768794784.822937
1768794784830.7495,1210.2564102564102,,1,1,1768794784.8307495
1768794784838.562,1210.2564102564102,,1,1,1768794784.838562
1768794784846.3745,1211.7216117216117,,1,1,1768794784.8463745
1768794784854.187,1210.989010989011,,1,1,1768794784.854187
1768794784861.9995,1208.058608058608,,1,1,1768794784.8619995
1768794784869.812,1201.4652014652013,,1,1,1768794784.869812
1768794784877.6245,1194.1391941391942,,1,1,1768794784.8776245
1768794784885.437,1189.0109890109889,,1,1,1768794784.885437
1768794784893.2495,1188.278388278388,,1,1,1768794784.8932495
1768794784901.062,1188.278388278388,,1,1,1768794784.901062
1768794784908.8745,1189.0109890109889,,1,1,1768794784.9088745
1768794784916.687,1190.4761904761904,,1,1,1768794784.916687
1768794784924.4995,1192.6739926739926,,1,1,1768794784.9244995
1768794784932.312,1196.3369963369962,,1,1,1768794784.932312
1768794784940.1245,1198.5347985347985,,1,1,1768794784.9401245
1768794784947.937,1200.0,,1,1,1768794784.947937
1768794784955.7495,1200.0,,1,1,1768794784.9557495
1768794784963.562,1198.5347985347985,,1,1,1768794784.963562
1768794784971.3745,1196.3369963369962,,1,1,1768794784.9713745
1768794784979.187,1200.0,,1,1,1768794784.979187
1768794784986.9995,1201.4652014652013,,1,1,1768794784.9869995
1768794784994.812,1207.3260073260074,,1,1,1768794784.994812
1768794785002.6245,1221.9780219780218,,1,1,1768794785.0026245
1768794785010.437,1243.2234432234432,,1,1,1768794785.010437
1768794785018.2495,1270.3296703296703,,1,1,1768794785.0182495
1768794785026.062,1298.9010989010987,,1,1,1768794785.026062
1768794785033.8745,1326.007326007326,,1,1,1768794785.0338745
1768794785041.687,1353.113553113553,,1,1,1768794785.041687
1768794785049.4995,1379.4871794871794,,1,1,1768794785.0494995
1768794785057.312,1406.5934065934066,,1,1,1768794785.057312
1768794785065.1245,1432.2344322344322,,1,1,1768794785.0651245
1768794785072.937,1457.142857142857,,1,1,1768794785.072937
1768794785080.7495,1472.5274725274724,,1,1,1768794785.0807495
1768794785088.562,1484.2490842490845,,1,1,1768794785.088562
1768794785096.3745,1490.8424908424906,,1,1,1768794785.0963745
1768794785104.187,1493.7728937728937,,1,1,1768794785.104187
1768794785111.9995,1496.7032967032967,,1,1,1768794785.1119995
1768794785119.812,1498.9010989010987,,1,1,1768794785.119812
1768794785127.6245,1501.8315018315018,,1,1,1768794785.1276245
1768794785135.437,1503.2967032967033,,1,1,1768794785.135437
1768794785143.2495,1505.4945054945051,,1,1,1768794785.1432495
1768794785151.062,1507.6923076923076,,1,1,1768794785.151062
1768794785158.8745,1509.1575091575091,,1,1,1768794785.1588745
1768794785166.687,1509.89010989011,,1,1,1768794785.166687
1768794785174.4995,1511.3553113553112,,1,1,1768794785.1744995
1768794785182.312,1509.89010989011,,1,1,1768794785.182312
1768794785190.1245,1501.8315018315018,,1,1,1768794785.1901245
1768794785197.937,1493.040293040293,,1,1,1768794785.197937
1768794785205.7495,1484.2490842490845,,1,1,1768794785.2057495
1768794785213.562,1481.3186813186812,,1,1,1768794785.213562
1768794785221.3745,1480.5860805860805,,1,1,1768794785.2213745
1768794785229.187,1479.120879120879,,1,1,1768794785.229187
1768794785236.9995,1478.3882783882782,,1,1,1768794785.2369995
1768794785244.812,1473.260073260073,,1,1,1768794785.244812
1768794785252.6245,1465.9340659340658,,1,1,1768794785.2526245
1768794785260.437,1455.6776556776556,,1,1,1768794785.260437
1768794785268.2495,1447.6190476190477,,1,1,1768794785.2682495
1768794785276.062,1441.7582417582416,,1,1,1768794785.276062
1768794785283.8745,1438.8278388278388,,1,1,1768794785.2838745
1768794785291.687,1438.8278388278388,,1,1,1768794785.291687
1768794785299.4995,1435.8974358974358,,1,1,1768794785.2994995
1768794785307.312,1430.03663003663,,1,1,1768794785.307312
1768794785315.1245,1423.4432234432234,,1,1,1768794785.3151245
1768794785322.937,1419.047619047619,,1,1,1768794785.322937
1768794785330.7495,1419.7802197802198,,1,1,1768794785.3307495
1768794785338.562,1416.8498168498168,,1,1,1768794785.338562
1768794785346.3745,1416.8498168498168,,1,1,1768794785.3463745
1768794785354.187,1419.047619047619,,1,1,1768794785.354187
1768794785361.9995,1415.3846153846152,,1,1,1768794785.3619995
1768794785369.812,1408.7912087912086,,1,1,1768794785.369812
1768794785377.6245,1400.0,,1,1,1768794785.3776245
1768794785385.437,1393.4065934065934,,1,1,1768794785.385437
1768794785393.2495,1393.4065934065934,,1,1,1768794785.3932495
1768794785401.062,1389.7435897435896,,1,1,1768794785.401062
1768794785408.8745,1387.5457875457876,,1,1,1768794785.4088745
1768794785416.687,1386.8131868131868,,1,1,1768794785.416687
1768794785424.4995,1387.5457875457876,,1,1,1768794785.4244995
1768794785432.312,1385.3479853479853,,1,1,1768794785.432312
1768794785440.1245,1380.2197802197802,,1,1,1768794785.4401245
1768794785447.937,1373.6263736263736,,1,1,1768794785.447937
1768794785455.7495,1368.4981684981683,,1,1,1768794785.4557495
1768794785463.562,1363.3699633699632,,1,1,1768794785.463562
1768794785471.3745,1358.241758241758,,1,1,1768794785.4713745
1768794785479.187,1356.043956043956,,0,-1,1768794785.479187
1768794785486.9995,1348.7179487179487,,0,-1,1768794785.4869995
1768794785494.812,1342.124542124542,,0,-1,1768794785.494812
1768794785502.6245,1339.92673992674,,0,-1,1768794785.5026245
1768794785510.437,1334.065934065934,,0,-1,1768794785.510437
1768794785518.2495,1321.6117216117216,,0,-1,1768794785.5182495
1768794785526.062,1306.9597069597069,,0,-1,1768794785.526062
1768794785533.8745,1291.5750915750914,,0,-1,1768794785.5338745
1768794785541.687,1276.190476190476,,0,-1,1768794785.541687
1768794785549.4995,1260.07326007326,,0,-1,1768794785.5494995
1768794785557.312,1246.8864468864467,,0,-1,1768794785.557312
1768794785565.1245,1233.6996336996335,,0,-1,1768794785.5651245
1768794785572.937,1223.4432234432234,,0,-1,1768794785.572937
1768794785580.7495,1218.3150183150185,,0,-1,1768794785.5807495
1768794785588.562,1216.117216117216,,0,-1,1768794785.588562
1768794785596.3745,1215.3846153846152,,0,-1,1768794785.5963745
1768794785604.187,1217.5824175824175,,0,-1,1768794785.604187
1768794785611.9995,1219.047619047619,,0,-1,1768794785.6119995
1768794785619.812,1219.7802197802198,,0,-1,1768794785.619812
1768794785627.6245,1218.3150183150185,,0,-1,1768794785.6276245
1768794785635.437,1216.117216117216,,0,-1,1768794785.635437
1768794785643.2495,1212.4542124542124,,0,-1,1768794785.6432495
1768794785651.062,1208.058608058608,,0,-1,1768794785.651062
1768794785658.8745,1204.3956043956043,,0,-1,1768794785.6588745
1768794785666.687,1202.197802197802,,0,-1,1768794785.666687
1768794785674.4995,1197.069597069597,,0,-1,1768794785.6744995
1768794785682.312,1191.2087912087911,,0,-1,1768794785.682312
1768794785690.1245,1186.8131868131868,,0,-1,1768794785.6901245
1768794785697.937,1183.150183150183,,0,-1,1768794785.697937
1768794785705.7495,1176.5567765567764,,0,-1,1768794785.7057495
1768794785713.562,1172.161172161172,,0,-1,1768794785.713562
1768794785721.3745,1169.9633699633698,,0,-1,1768794785.7213745
1768794785729.187,1164.8351648351647,,0,-1,1768794785.729187
1768794785736.9995,1159.7069597069597,,0,-1,1768794785.7369995
1768794785744.812,1160.4395604395604,,0,-1,1768794785.744812
1768794785752.6245,1160.4395604395604,,0,-1,1768794785.7526245
1768794785760.437,1156.7765567765566,,0,-1,1768794785.760437
1768794785768.2495,1156.043956043956,,0,-1,1768794785.7682495
1768794785776.062,1156.7765567765566,,0,-1,1768794785.776062
1768794785783.8745,1151.6483516483515,,0,-1,1768794785.7838745
1768794785791.687,1152.3809523809523,,0,-1,1768794785.791687
1768794785799.4995,1146.5201465201465,,0,-1,1768794785.7994995
1768794785807.312,1138.4615384615383,,0,-1,1768794785.807312
1768794785815.1245,1134.065934065934,,0,-1,1768794785.8151245
1768794785822.937,1128.2051282051282,,0,-1,1768794785.822937
1768794785830.7495,1119.4139194139193,,0,-1,1768794785.8307495
1768794785838.562,1118.6813186813183,,0,-1,1768794785.838562
1768794785846.3745,1120.8791208791208,,0,-1,1768794785.8463745
1768794785854.187,1136.2637362637363,,0,-1,1768794785.854187
1768794785861.9995,1164.102564102564,,0,-1,1768794785.8619995
1768794785869.812,1195.6043956043954,,0,-1,1768794785.869812
1768794785877.6245,1226.3736263736264,,0,-1,1768794785.8776245
1768794785885.437,1263.003663003663,,0,-1,1768794785.885437
1768794785893.2495,1297.4358974358977,,0,-1,1768794785.8932495
1768794785901.062,1331.135531135531,,0,-1,1768794785.901062
1768794785908.8745,1369.9633699633698,,0,-1,1768794785.9088745
1768794785916.687,1405.8608058608058,,0,-1,1768794785.916687
1768794785924.4995,1433.6996336996335,,0,-1,1768794785.9244995
1768794785932.312,1457.875457875458,,0,-1,1768794785.932312
1768794785940.1245,1471.7948717948716,,0,-1,1768794785.9401245
1768794785947.937,1482.7838827838827,,0,-1,1768794785.947937
1768794785955.7495,1490.8424908424906,,0,-1,1768794785.9557495
1768794785963.562,1487.9120879120878,,0,-1,1768794785.963562
1768794785971.3745,1484.9816849816848,,0,-1,1768794785.9713745
1768794785979.187,1478.3882783882782,,0,-1,1768794785.979187
1768794785986.9995,1472.5274725274724,,0,-1,1768794785.9869995
1768794785994.812,1470.3296703296703,,0,-1,1768794785.994812
1768794786002.6245,1467.3992673992673,,0,-1,1768794786.0026245
1768794786010.437,1470.3296703296703,,0,-1,1768794786.010437
1768794786018.2495,1466.6666666666663,,0,-1,1768794786.0182495
1768794786026.062,1464.4688644688645,,0,-1,1768794786.026062
1768794786033.8745,1463.003663003663,,0,-1,1768794786.0338745
1768794786041.687,1458.6080586080584,,0,-1,1768794786.041687
1768794786049.4995,1451.2820512820513,,0,-1,1768794786.0494995
1768794786057.312,1446.153846153846,,0,-1,1768794786.057312
1768794786065.1245,1432.9670329670328,,0,-1,1768794786.0651245
1768794786072.937,1424.175824175824,,0,-1,1768794786.072937
1768794786080.7495,1410.989010989011,,0,-1,1768794786.0807495
1768794786088.562,1400.0,,0,-1,1768794786.088562
1768794786096.3745,1397.069597069597,,0,-1,1768794786.0963745
1768794786104.187,1396.3369963369962,,0,-1,1768794786.104187
1768794786111.9995,1400.0,,0,-1,1768794786.1119995
1768794786119.812,1402.197802197802,,0,-1,1768794786.119812
1768794786127.6245,1405.128205128205,,0,-1,1768794786.1276245
1768794786135.437,1403.6630036630036,,0,-1,1768794786.135437
1768794786143.2495,1402.197802197802,,0,-1,1768794786.1432495
1768794786151.062,1400.7326007326003,,0,-1,1768794786.151062
1768794786158.8745,1397.069597069597,,0,-1,1768794786.1588745
1768794786166.687,1397.8021978021975,,0,-1,1768794786.166687
1768794786174.4995,1404.3956043956043,,0,-1,1768794786.1744995
1768794786182.312,1407.3260073260071,,0,-1,1768794786.182312
1768794786190.1245,1411.7216117216117,,0,-1,1768794786.1901245
1768794786197.937,1409.5238095238094,,0,-1,1768794786.197937
1768794786205.7495,1408.7912087912086,,0,-1,1768794786.2057495
1768794786213.562,1409.5238095238094,,0,-1,1768794786.213562
1768794786221.3745,1405.128205128205,,0,-1,1768794786.2213745
1768794786229.187,1405.128205128205,,0,-1,1768794786.229187
1768794786236.9995,1400.0,,0,-1,1768794786.2369995
1768794786244.812,1390.4761904761904,,0,-1,1768794786.244812
1768794786252.6245,1384.6153846153843,,0,-1,1768794786.2526245
1768794786260.437,1373.6263736263736,,0,-1,1768794786.260437
1768794786268.2495,1368.4981684981683,,0,-1,1768794786.2682495
1768794786276.062,1363.3699633699632,,0,-1,1768794786.276062
1768794786283.8745,1356.043956043956,,0,-1,1768794786.2838745
1768794786291.687,1348.7179487179487,,0,-1,1768794786.291687
1768794786299.4995,1337.7289377289376,,0,-1,1768794786.2994995
1768794786307.312,1334.065934065934,,0,-1,1768794786.307312
1768794786315.1245,1326.007326007326,,0,-1,1768794786.3151245
1768794786322.937,1317.9487179487178,,0,-1,1768794786.322937
1768794786330.7495,1315.018315018315,,0,-1,1768794786.3307495
1768794786338.562,1309.89010989011,,0,-1,1768794786.338562
1768794786346.3745,1310.6227106227104,,0,-1,1768794786.3463745
1768794786354.187,1307.6923076923076,,0,-1,1768794786.354187
1768794786361.9995,1304.7619047619046,,0,-1,1768794786.3619995
1768794786369.812,1300.3663003663005,,0,-1,1768794786.369812
1768794786377.6245,1294.5054945054944,,0,-1,1768794786.3776245
1768794786385.437,1287.9120879120878,,0,-1,1768794786.385437
1768794786393.2495,1276.923076923077,,0,-1,1768794786.3932495
1768794786401.062,1271.7948717948716,,0,-1,1768794786.401062
1768794786408.8745,1263.7362637362637,,0,-1,1768794786.4088745
1768794786416.687,1263.003663003663,,0,-1,1768794786.416687
1768794786424.4995,1258.6080586080586,,0,-1,1768794786.4244995
1768794786432.312,1258.6080586080586,,0,-1,1768794786.432312
1768794786440.1245,1256.4102564102564,,0,-1,1768794786.4401245
1768794786447.937,1252.014652014652,,0,-1,1768794786.447937
1768794786455.7495,1249.084249084249,,0,-1,1768794786.4557495
1768794786463.562,1241.7582417582416,,0,-1,1768794786.463562
1768794786471.3745,1236.6300366300366,,0,-1,1768794786.4713745
1768794786479.187,1228.5714285714284,,0,-1,1768794786.479187
1768794786486.9995,1226.3736263736264,,0,-1,1768794786.4869995
1768794786494.812,1227.8388278388277,,0,-1,1768794786.494812
1768794786502.6245,1229.3040293040292,,0,-1,1768794786.5026245
1768794786510.437,1234.4322344322345,,0,-1,1768794786.510437
1768794786518.2495,1235.8974358974358,,0,-1,1768794786.5182495
1768794786526.062,1239.5604395604396,,0,-1,1768794786.526062
1768794786533.8745,1236.6300366300366,,0,-1,1768794786.5338745
1768794786541.687,1235.164835164835,,0,-1,1768794786.541687
1768794786549.4995,1230.7692307692307,,0,-1,1768794786.5494995
1768794786557.312,1222.7106227106226,,0,-1,1768794786.557312
1768794786565.1245,1219.047619047619,,0,-1,1768794786.5651245
1768794786572.937,1210.2564102564102,,0,-1,1768794786.572937
1768794786580.7495,1208.058608058608,,0,-1,1768794786.5807495
1768794786588.562,1202.9304029304028,,0,-1,1768794786.588562
1768794786596.3745,1202.197802197802,,0,-1,1768794786.5963745
1768794786604.187,1197.8021978021975,,0,-1,1768794786.604187
1768794786611.9995,1197.8021978021975,,0,-1,1768794786.6119995
1768794786619.812,1196.3369963369962,,0,-1,1768794786.619812
1768794786627.6245,1196.3369963369962,,0,-1,1768794786.6276245
1768794786635.437,1196.3369963369962,,0,-1,1768794786.635437
1768794786643.2495,1192.6739926739926,,0,-1,1768794786.6432495
1768794786651.062,1193.4065934065934,,0,-1,1768794786.651062
1768794786658.8745,1186.8131868131868,,0,-1,1768794786.6588745
1768794786666.687,1183.150183150183,,0,-1,1768794786.666687
1768794786674.4995,1176.5567765567764,,0,-1,1768794786.6744995
1768794786682.312,1172.161172161172,,0,-1,1768794786.682312
1768794786690.1245,1174.3589743589744,,0,-1,1768794786.6901245
1768794786697.937,1180.2197802197802,,0,-1,1768794786.697937
1768794786705.7495,1192.6739926739926,,0,-1,1768794786.7057495
1768794786713.562,1210.989010989011,,0,-1,1768794786.713562
1768794786721.3745,1233.6996336996335,,0,-1,1768794786.7213745
1768794786729.187,1263.7362637362637,,0,-1,1768794786.729187
1768794786736.9995,1294.5054945054944,,0,-1,1768794786.7369995
1768794786744.812,1334.065934065934,,0,-1,1768794786.744812
1768794786752.6245,1370.6959706959706,,0,-1,1768794786.7526245
1768794786760.437,1413.9194139194135,,0,-1,1768794786.760437
1768794786768.2495,1456.4102564102564,,0,-1,1768794786.7682495
1768794786776.062,1493.7728937728937,,0,-1,1768794786.776062
1768794786783.8745,1531.8681318681315,,0,-1,1768794786.7838745
1768794786791.687,1557.5091575091574,,0,-1,1768794786.791687
1768794786799.4995,1583.150183150183,,0,-1,1768794786.7994995
1768794786807.312,1606.5934065934066,,0,-1,1768794786.807312
1768794786815.1245,1627.8388278388277,,0,-1,1768794786.8151245
1768794786822.937,1652.0146520146518,,0,-1,1768794786.822937
1768794786830.7495,1673.260073260073,,0,-1,1768794786.8307495
1768794786838.562,1692.3076923076922,,0,-1,1768794786.838562
1768794786846.3745,1713.5531135531137,,0,-1,1768794786.8463745
1768794786854.187,1729.6703296703297,,0,-1,1768794786.854187
1768794786861.9995,1746.5201465201465,,0,-1,1768794786.8619995
1768794786869.812,1758.241758241758,,0,-1,1768794786.869812
1768794786877.6245,1765.5677655677655,,0,-1,1768794786.8776245
1768794786885.437,1775.091575091575,,0,-1,1768794786.885437
1768794786893.2495,1787.545787545787,,0,-1,1768794786.8932495
1768794786901.062,1799.2673992673992,,0,-1,1768794786.901062
1768794786908.8745,1816.117216117216,,0,-1,1768794786.9088745
1768794786916.687,1836.6300366300368,,0,-1,1768794786.916687
1768794786924.4995,1852.014652014652,,0,-1,1768794786.9244995
1768794786932.312,1860.07326007326,,0,-1,1768794786.932312
1768794786940.1245,1854.9450549450548,,0,-1,1768794786.9401245
1768794786947.937,1841.7582417582416,,0,-1,1768794786.947937
1768794786955.7495,1816.117216117216,,0,-1,1768794786.9557495
1768794786963.562,1782.4175824175825,,0,-1,1768794786.963562
1768794786971.3745,1745.7875457875457,,0,-1,1768794786.9713745
1768794786979.187,1702.5641025641023,,0,-1,1768794786.979187
1768794786986.9995,1659.3406593406592,,0,-1,1768794786.9869995
1768794786994.812,1619.047619047619,,0,-1,1768794786.994812
1768794787002.6245,1580.2197802197802,,0,-1,1768794787.0026245
1768794787010.437,1547.985347985348,,0,-1,1768794787.010437
1768794787018.2495,1516.4835164835165,,0,-1,1768794787.0182495
1768794787026.062,1485.7142857142856,,0,-1,1768794787.026062
1768794787033.8745,1458.6080586080584,,0,-1,1768794787.0338745
1768794787041.687,1435.8974358974358,,0,-1,1768794787.041687
1768794787049.4995,1419.7802197802198,,0,-1,1768794787.0494995
1768794787057.312,1406.5934065934066,,0,-1,1768794787.057312
1768794787065.1245,1391.2087912087911,,0,-1,1768794787.0651245
1768794787072.937,1375.8241758241757,,0,-1,1768794787.072937
1768794787080.7495,1364.102564102564,,0,-1,1768794787.0807495
1768794787088.562,1354.5787545787546,,0,-1,1768794787.088562
1768794787096.3745,1347.985347985348,,0,-1,1768794787.0963745
1768794787104.187,1345.054945054945,,0,-1,1768794787.104187
1768794787111.9995,1343.5897435897434,,0,-1,1768794787.1119995
1768794787119.812,1347.2527472527472,,0,-1,1768794787.119812
1768794787127.6245,1354.5787545787546,,0,-1,1768794787.1276245
1768794787135.437,1359.7069597069597,,0,-1,1768794787.135437
1768794787143.2495,1360.4395604395604,,0,-1,1768794787.1432495
1768794787151.062,1358.241758241758,,0,-1,1768794787.151062
1768794787158.8745,1355.311355311355,,0,-1,1768794787.1588745
1768794787166.687,1353.113553113553,,0,-1,1768794787.166687
1768794787174.4995,1350.9157509157508,,0,-1,1768794787.1744995
1768794787182.312,1345.054945054945,,0,-1,1768794787.182312
1768794787190.1245,1336.263736263736,,0,-1,1768794787.1901245
1768794787197.937,1326.007326007326,,0,-1,1768794787.197937
1768794787205.7495,1309.1575091575091,,0,-1,1768794787.2057495
1768794787213.562,1294.5054945054944,,0,-1,1768794787.213562
1768794787221.3745,1283.5164835164835,,0,-1,1768794787.2213745
1768794787229.187,1275.4578754578754,,0,-1,1768794787.229187
1768794787236.9995,1271.7948717948716,,0,-1,1768794787.2369995
1768794787244.812,1271.7948717948716,,0,-1,1768794787.244812
1768794787252.6245,1273.992673992674,,0,-1,1768794787.2526245
1768794787260.437,1276.190476190476,,0,-1,1768794787.260437
1768794787268.2495,1279.120879120879,,0,-1,1768794787.2682495
1768794787276.062,1281.3186813186812,,0,-1,1768794787.276062
1768794787283.8745,1280.5860805860805,,0,-1,1768794787.2838745
1768794787291.687,1276.923076923077,,0,-1,1768794787.291687
1768794787299.4995,1270.3296703296703,,0,-1,1768794787.2994995
1768794787307.312,1268.131868131868,,0,-1,1768794787.307312
1768794787315.1245,1266.6666666666663,,0,-1,1768794787.3151245
1768794787322.937,1264.4688644688645,,0,-1,1768794787.322937
1768794787330.7495,1262.2710622710622,,0,-1,1768794787.3307495
1768794787338.562,1263.7362637362637,,0,-1,1768794787.338562
1768794787346.3745,1268.131868131868,,0,-1,1768794787.3463745
1768794787354.187,1271.7948717948716,,0,-1,1768794787.354187
1768794787361.9995,1271.7948717948716,,0,-1,1768794787.3619995
1768794787369.812,1266.6666666666663,,0,-1,1768794787.369812
1768794787377.6245,1263.7362637362637,,0,-1,1768794787.3776245
1768794787385.437,1258.6080586080586,,0,-1,1768794787.385437
1768794787393.2495,1248.3516483516482,,0,-1,1768794787.3932495
1768794787401.062,1241.7582417582416,,0,-1,1768794787.401062
1768794787408.8745,1238.8278388278388,,0,-1,1768794787.4088745
1768794787416.687,1238.095238095238,,0,-1,1768794787.416687
1768794787424.4995,1235.8974358974358,,0,-1,1768794787.4244995
1768794787432.312,1230.7692307692307,,0,-1,1768794787.432312
1768794787440.1245,1217.5824175824175,,0,-1,1768794787.4401245
1768794787447.937,1203.6630036630036,,0,-1,1768794787.447937
1768794787455.7495,1193.4065934065934,,0,-1,1768794787.4557495
1768794787463.562,1187.5457875457876,,0,-1,1768794787.463562
1768794787471.3745,1182.4175824175825,,0,-1,1768794787.4713745
1768794787479.187,1178.021978021978,,0,-1,1768794787.479187
1768794787486.9995,1171.428571428571,,0,-1,1768794787.4869995
1768794787494.812,1166.3003663003662,,0,-1,1768794787.494812
1768794787502.6245,1162.6373626373625,,0,-1,1768794787.5026245
1768794787510.437,1161.904761904762,,0,-1,1768794787.510437
1768794787518.2495,1161.904761904762,,0,-1,1768794787.5182495
1768794787526.062,1161.1721611721612,,0,-1,1768794787.526062
1768794787533.8745,1157.5091575091574,,0,-1,1768794787.5338745
1768794787541.687,1153.113553113553,,0,-1,1768794787.541687
1768794787549.4995,1151.6483516483515,,0,-1,1768794787.5494995
1768794787557.312,1149.4505494505493,,0,-1,1768794787.557312
1768794787565.1245,1145.7875457875457,,0,-1,1768794787.5651245
1768794787572.937,1140.6593406593406,,0,-1,1768794787.572937
1768794787580.7495,1136.9963369963368,,0,-1,1768794787.5807495
1768794787588.562,1139.92673992674,,0,-1,1768794787.588562
1768794787596.3745,1152.3809523809523,,0,-1,1768794787.5963745
1768794787604.187,1169.9633699633698,,0,-1,1768794787.604187
1768794787611.9995,1192.6739926739926,,0,-1,1768794787.6119995
1768794787619.812,1221.245421245421,,0,-1,1768794787.619812
1768794787627.6245,1250.5494505494505,,0,-1,1768794787.6276245
1768794787635.437,1282.051282051282,,0,-1,1768794787.635437
1768794787643.2495,1309.1575091575091,,0,-1,1768794787.6432495
1768794787651.062,1336.263736263736,,0,-1,1768794787.651062
1768794787658.8745,1364.102564102564,,0,-1,1768794787.6588745
1768794787666.687,1391.2087912087911,,0,-1,1768794787.666687
1768794787674.4995,1417.5824175824175,,0,-1,1768794787.6744995
1768794787682.312,1438.8278388278388,,0,-1,1768794787.682312
1768794787690.1245,1454.9450549450548,,0,-1,1768794787.6901245
1768794787697.937,1467.3992673992673,,0,-1,1768794787.697937
1768794787705.7495,1477.6556776556777,,0,-1,1768794787.7057495
1768794787713.562,1484.2490842490845,,0,-1,1768794787.713562
1768794787721.3745,1482.7838827838827,,0,-1,1768794787.7213745
1768794787729.187,1483.5164835164835,,0,-1,1768794787.729187
1768794787736.9995,1482.051282051282,,0,-1,1768794787.7369995
1768794787744.812,1481.3186813186812,,0,-1,1768794787.744812
1768794787752.6245,1479.8534798534797,,0,-1,1768794787.7526245
1768794787760.437,1476.923076923077,,0,-1,1768794787.760437
1768794787768.2495,1473.260073260073,,0,-1,1768794787.7682495
1768794787776.062,1468.131868131868,,0,-1,1768794787.776062
1768794787783.8745,1468.131868131868,,0,-1,1768794787.7838745
1768794787791.687,1465.9340659340658,,0,-1,1768794787.791687
1768794787799.4995,1462.2710622710622,,0,-1,1768794787.7994995
1768794787807.312,1456.4102564102564,,0,-1,1768794787.807312
1768794787815.1245,1451.2820512820513,,0,-1,1768794787.8151245
1768794787822.937,1444.688644688645,,0,-1,1768794787.822937
1768794787830.7495,1435.164835164835,,0,-1,1768794787.8307495
1768794787838.562,1422.7106227106226,,0,-1,1768794787.838562
1768794787846.3745,1410.2564102564102,,0,-1,1768794787.8463745
1768794787854.187,1398.5347985347985,,0,-1,1768794787.854187
1768794787861.9995,1383.8827838827838,,0,-1,1768794787.8619995
1768794787869.812,1369.9633699633698,,0,-1,1768794787.869812
1768794787877.6245,1358.241758241758,,0,-1,1768794787.8776245
1768794787885.437,1350.18315018315,,0,-1,1768794787.885437
1768794787893.2495,1345.7875457875457,,0,-1,1768794787.8932495
1768794787901.062,1343.5897435897434,,0,-1,1768794787.901062
1768794787908.8745,1343.5897435897434,,0,-1,1768794787.9088745
1768794787916.687,1340.6593406593406,,0,-1,1768794787.916687
1768794787924.4995,1338.4615384615383,,0,-1,1768794787.9244995
1768794787932.312,1336.9963369963368,,0,-1,1768794787.932312
1768794787940.1245,1339.194139194139,,0,-1,1768794787.9401245
1768794787947.937,1339.194139194139,,0,-1,1768794787.947937
1768794787955.7495,1336.9963369963368,,0,-1,1768794787.9557495
1768794787963.562,1336.9963369963368,,0,-1,1768794787.963562
1768794787971.3745,1340.6593406593406,,0,-1,1768794787.9713745
1768794787979.187,1343.5897435897434,,0,-1,1768794787.979187
1768794787986.9995,1343.5897435897434,,0,-1,1768794787.9869995
1768794787994.812,1342.857142857143,,0,-1,1768794787.994812
1768794788002.6245,1339.194139194139,,0,-1,1768794788.0026245
1768794788010.437,1331.8681318681315,,0,-1,1768794788.010437
1768794788018.2495,1324.5421245421244,,0,-1,1768794788.0182495
1768794788026.062,1314.2857142857142,,0,-1,1768794788.026062
1768794788033.8745,1305.4945054945051,,0,-1,1768794788.0338745
1768794788041.687,1300.3663003663005,,0,-1,1768794788.041687
1768794788049.4995,1296.7032967032967,,0,-1,1768794788.0494995
1768794788057.312,1293.7728937728937,,0,-1,1768794788.057312
1768794788065.1245,1290.8424908424909,,0,-1,1768794788.0651245
1768794788072.937,1287.179487179487,,0,-1,1768794788.072937
1768794788080.7495,1285.7142857142856,,0,-1,1768794788.0807495
1768794788088.562,1284.2490842490845,,0,-1,1768794788.088562
1768794788096.3745,1280.5860805860805,,0,-1,1768794788.0963745
1768794788104.187,1277.6556776556777,,0,-1,1768794788.104187
1768794788111.9995,1274.7252747252746,,0,-1,1768794788.1119995
1768794788119.812,1266.6666666666663,,0,-1,1768794788.119812
1768794788127.6245,1254.9450549450548,,0,-1,1768794788.1276245
1768794788135.437,1246.8864468864467,,0,-1,1768794788.135437
1768794788143.2495,1241.7582417582416,,0,-1,1768794788.1432495
1768794788151.062,1240.29304029304,,0,-1,1768794788.151062
1768794788158.8745,1239.5604395604396,,0,-1,1768794788.1588745
1768794788166.687,1239.5604395604396,,0,-1,1768794788.166687
1768794788174.4995,1241.0256410256409,,1,2,1768794788.1744995
1768794788182.312,1239.5604395604396,,1,2,1768794788.182312
1768794788190.1245,1236.6300366300366,,1,2,1768794788.1901245
1768794788197.937,1233.6996336996335,,1,2,1768794788.197937
1768794788205.7495,1230.03663003663,,1,2,1768794788.2057495
1768794788213.562,1228.5714285714284,,1,2,1768794788.213562
1768794788221.3745,1225.6410256410256,,1,2,1768794788.2213745
1768794788229.187,1221.245421245421,,1,2,1768794788.229187
1768794788236.9995,1214.6520146520145,,1,2,1768794788.2369995
1768794788244.812,1205.8608058608058,,1,2,1768794788.244812
1768794788252.6245,1199.2673992673992,,1,2,1768794788.2526245
1768794788260.437,1192.6739926739926,,1,2,1768794788.260437
1768794788268.2495,1189.0109890109889,,1,2,1768794788.2682495
1768794788276.062,1188.278388278388,,1,2,1768794788.276062
1768794788283.8745,1187.5457875457876,,1,2,1768794788.2838745
1768794788291.687,1189.0109890109889,,1,2,1768794788.291687
1768794788299.4995,1192.6739926739926,,1,2,1768794788.2994995
1768794788307.312,1191.2087912087911,,1,2,1768794788.307312
1768794788315.1245,1188.278388278388,,1,2,1768794788.3151245
1768794788322.937,1183.150183150183,,1,2,1768794788.322937
1768794788330.7495,1181.6849816849815,,1,2,1768794788.3307495
1768794788338.562,1181.6849816849815,,1,2,1768794788.338562
1768794788346.3745,1182.4175824175825,,1,2,1768794788.3463745
1768794788354.187,1180.2197802197802,,1,2,1768794788.354187
1768794788361.9995,1175.8241758241757,,1,2,1768794788.3619995
1768794788369.812,1172.161172161172,,1,2,1768794788.369812
1768794788377.6245,1168.4981684981683,,1,2,1768794788.3776245
1768794788385.437,1164.8351648351647,,1,2,1768794788.385437
1768794788393.2495,1158.974358974359,,1,2,1768794788.3932495
1768794788401.062,1152.3809523809523,,1,2,1768794788.401062
1768794788408.8745,1145.7875457875457,,1,2,1768794788.4088745
1768794788416.687,1142.124542124542,,1,2,1768794788.416687
1768794788424.4995,1140.6593406593406,,1,2,1768794788.4244995
1768794788432.312,1138.4615384615383,,1,2,1768794788.432312
1768794788440.1245,1137.7289377289376,,1,2,1768794788.4401245
1768794788447.937,1137.7289377289376,,1,2,1768794788.447937
1768794788455.7495,1139.92673992674,,1,2,1768794788.4557495
1768794788463.562,1141.3919413919414,,1,2,1768794788.463562
1768794788471.3745,1145.7875457875457,,1,2,1768794788.4713745
1768794788479.187,1148.7179487179487,,1,2,1768794788.479187
1768794788486.9995,1150.18315018315,,1,2,1768794788.4869995
1768794788494.812,1150.9157509157508,,1,2,1768794788.494812
1768794788502.6245,1148.7179487179487,,1,2,1768794788.5026245
1768794788510.437,1147.985347985348,,1,2,1768794788.510437
1768794788518.2495,1147.985347985348,,1,2,1768794788.5182495
1768794788526.062,1146.5201465201465,,1,2,1768794788.526062
1768794788533.8745,1145.7875457875457,,1,2,1768794788.5338745
1768794788541.687,1147.2527472527472,,1,2,1768794788.541687
1768794788549.4995,1145.7875457875457,,1,2,1768794788.5494995
1768794788557.312,1144.3223443223442,,1,2,1768794788.557312
1768794788565.1245,1142.857142857143,,1,2,1768794788.5651245
1768794788572.937,1143.5897435897434,,1,2,1768794788.572937
1768794788580.7495,1142.857142857143,,1,2,1768794788.5807495
1768794788588.562,1142.857142857143,,1,2,1768794788.588562
1768794788596.3745,1144.3223443223442,,1,2,1768794788.5963745
1768794788604.187,1147.985347985348,,1,2,1768794788.604187
1768794788611.9995,1151.6483516483515,,1,2,1768794788.6119995
1768794788619.812,1153.8461538461538,,1,2,1768794788.619812
1768794788627.6245,1153.8461538461538,,1,2,1768794788.6276245
1768794788635.437,1155.311355311355,,1,2,1768794788.635437
1768794788643.2495,1161.904761904762,,1,2,1768794788.6432495
1768794788651.062,1169.9633699633698,,1,2,1768794788.651062
1768794788658.8745,1180.952380952381,,1,2,1768794788.6588745
1768794788666.687,1196.3369963369962,,1,2,1768794788.666687
1768794788674.4995,1206.5934065934066,,1,2,1768794788.6744995
1768794788682.312,1212.4542124542124,,1,2,1768794788.682312
1768794788690.1245,1220.5128205128203,,1,2,1768794788.6901245
1768794788697.937,1230.7692307692307,,1,2,1768794788.697937
1768794788705.7495,1240.29304029304,,1,2,1768794788.7057495
1768794788713.562,1249.8168498168498,,1,2,1768794788.713562
1768794788721.3745,1260.805860805861,,1,2,1768794788.7213745
1768794788729.187,1273.260073260073,,1,2,1768794788.729187
1768794788736.9995,1282.7838827838827,,1,2,1768794788.7369995
1768794788744.812,1290.10989010989,,1,2,1768794788.744812
1768794788752.6245,1294.5054945054944,,1,2,1768794788.7526245
1768794788760.437,1304.7619047619046,,1,2,1768794788.760437
1768794788768.2495,1317.9487179487178,,1,2,1768794788.7682495
1768794788776.062,1326.739926739927,,1,2,1768794788.776062
1768794788783.8745,1327.4725274725274,,1,2,1768794788.7838745
1768794788791.687,1323.076923076923,,1,2,1768794788.791687
1768794788799.4995,1319.4139194139193,,1,2,1768794788.7994995
1768794788807.312,1317.9487179487178,,1,2,1768794788.807312
1768794788815.1245,1317.9487179487178,,1,2,1768794788.8151245
1768794788822.937,1315.7509157509155,,1,2,1768794788.822937
1768794788830.7495,1315.7509157509155,,1,2,1768794788.8307495
1768794788838.562,1319.4139194139193,,1,2,1768794788.838562
1768794788846.3745,1323.076923076923,,1,2,1768794788.8463745
1768794788854.187,1323.076923076923,,1,2,1768794788.854187
1768794788861.9995,1318.6813186813183,,1,2,1768794788.8619995
1768794788869.812,1318.6813186813183,,1,2,1768794788.869812
1768794788877.6245,1314.2857142857142,,1,2,1768794788.8776245
1768794788885.437,1309.89010989011,,1,2,1768794788.885437
1768794788893.2495,1312.087912087912,,1,2,1768794788.8932495
1768794788901.062,1316.4835164835165,,1,2,1768794788.901062
1768794788908.8745,1320.8791208791208,,1,2,1768794788.9088745
1768794788916.687,1320.8791208791208,,1,2,1768794788.916687
1768794788924.4995,1326.007326007326,,1,2,1768794788.9244995
1768794788932.312,1330.4029304029302,,1,2,1768794788.932312
1768794788940.1245,1332.6007326007325,,1,2,1768794788.9401245
1768794788947.937,1333.3333333333333,,1,2,1768794788.947937
1768794788955.7495,1336.9963369963368,,1,2,1768794788.9557495
1768794788963.562,1336.263736263736,,1,2,1768794788.963562
1768794788971.3745,1336.263736263736,,1,2,1768794788.9713745
1768794788979.187,1333.3333333333333,,1,2,1768794788.979187
1768794788986.9995,1333.3333333333333,,1,2,1768794788.9869995
1768794788994.812,1331.8681318681315,,1,2,1768794788.994812
1768794789002.6245,1326.739926739927,,1,2,1768794789.0026245
1768794789010.437,1320.8791208791208,,1,2,1768794789.010437
1768794789018.2495,1317.9487179487178,,1,2,1768794789.0182495
1768794789026.062,1313.5531135531137,,1,2,1768794789.026062
1768794789033.8745,1309.89010989011,,1,2,1768794789.0338745
1768794789041.687,1309.1575091575091,,1,2,1768794789.041687
1768794789049.4995,1312.8205128205127,,1,2,1768794789.0494995
1768794789057.312,1318.6813186813183,,1,2,1768794789.057312
1768794789065.1245,1321.6117216117216,,1,2,1768794789.0651245
1768794789072.937,1324.5421245421244,,1,2,1768794789.072937
1768794789080.7495,1327.4725274725274,,1,2,1768794789.0807495
1768794789088.562,1323.8095238095236,,1,2,1768794789.088562
1768794789096.3745,1317.216117216117,,1,2,1768794789.0963745
1768794789104.187,1315.7509157509155,,1,2,1768794789.104187
1768794789111.9995,1316.4835164835165,,1,2,1768794789.1119995
1768794789119.812,1312.8205128205127,,1,2,1768794789.119812
1768794789127.6245,1308.4249084249084,,1,2,1768794789.1276245
1768794789135.437,1307.6923076923076,,1,2,1768794789.135437
1768794789143.2495,1305.4945054945051,,1,2,1768794789.1432495
1768794789151.062,1301.098901098901,,1,2,1768794789.151062
1768794789158.8745,1292.3076923076922,,1,2,1768794789.1588745
1768794789166.687,1285.7142857142856,,1,2,1768794789.166687
1768794789174.4995,1279.8534798534797,,1,2,1768794789.1744995
1768794789182.312,1269.5970695970695,,1,2,1768794789.182312
1768794789190.1245,1265.2014652014652,,1,2,1768794789.1901245
1768794789197.937,1257.142857142857,,1,2,1768794789.197937
1768794789205.7495,1252.014652014652,,1,2,1768794789.2057495
1768794789213.562,1247.6190476190477,,1,2,1768794789.213562
1768794789221.3745,1243.956043956044,,1,2,1768794789.2213745
1768794789229.187,1243.2234432234432,,1,2,1768794789.229187
1768794789236.9995,1245.4212454212454,,1,2,1768794789.2369995
1768794789244.812,1251.2820512820513,,1,2,1768794789.244812
1768794789252.6245,1254.9450549450548,,1,2,1768794789.2526245
1768794789260.437,1260.805860805861,,1,2,1768794789.260437
1768794789268.2495,1266.6666666666663,,1,2,1768794789.2682495
1768794789276.062,1266.6666666666663,,1,2,1768794789.276062
1768794789283.8745,1268.131868131868,,1,2,1768794789.2838745
1768794789291.687,1263.003663003663,,1,2,1768794789.291687
1768794789299.4995,1259.3406593406592,,1,2,1768794789.2994995
1768794789307.312,1254.212454212454,,1,2,1768794789.307312
1768794789315.1245,1245.4212454212454,,1,2,1768794789.3151245
1768794789322.937,1236.6300366300366,,1,2,1768794789.322937
1768794789330.7495,1234.4322344322345,,1,2,1768794789.3307495
1768794789338.562,1235.164835164835,,1,2,1768794789.338562
1768794789346.3745,1235.164835164835,,1,2,1768794789.3463745
1768794789354.187,1236.6300366300366,,1,2,1768794789.354187
1768794789361.9995,1235.8974358974358,,1,2,1768794789.3619995
1768794789369.812,1235.164835164835,,1,2,1768794789.369812
1768794789377.6245,1239.5604395604396,,1,2,1768794789.3776245
1768794789385.437,1241.0256410256409,,1,2,1768794789.385437
1768794789393.2495,1235.8974358974358,,1,2,1768794789.3932495
1768794789401.062,1230.03663003663,,1,2,1768794789.401062
1768794789408.8745,1223.4432234432234,,1,2,1768794789.4088745
1768794789416.687,1219.047619047619,,1,2,1768794789.416687
1768794789424.4995,1222.7106227106226,,1,2,1768794789.4244995
1768794789432.312,1225.6410256410256,,1,2,1768794789.432312
1768794789440.1245,1223.4432234432234,,1,2,1768794789.4401245
1768794789447.937,1222.7106227106226,,1,2,1768794789.447937
1768794789455.7495,1222.7106227106226,,1,2,1768794789.4557495
1768794789463.562,1221.245421245421,,1,2,1768794789.463562
1768794789471.3745,1221.245421245421,,1,2,1768794789.4713745
1768794789479.187,1217.5824175824175,,1,2,1768794789.479187
1768794789486.9995,1211.7216117216117,,1,2,1768794789.4869995
1768794789494.812,1210.989010989011,,1,2,1768794789.494812
1768794789502.6245,1210.989010989011,,1,2,1768794789.5026245
1768794789510.437,1213.1868131868132,,1,2,1768794789.510437
1768794789518.2495,1219.7802197802198,,1,2,1768794789.5182495
1768794789526.062,1219.047619047619,,1,2,1768794789.526062
1768794789533.8745,1219.7802197802198,,1,2,1768794789.5338745
1768794789541.687,1212.4542124542124,,1,2,1768794789.541687
1768794789549.4995,1207.3260073260074,,1,2,1768794789.5494995
1768794789557.312,1202.9304029304028,,1,2,1768794789.557312
1768794789565.1245,1198.5347985347985,,1,2,1768794789.5651245
1768794789572.937,1193.4065934065934,,1,2,1768794789.572937
1768794789580.7495,1193.4065934065934,,1,2,1768794789.5807495
1768794789588.562,1189.7435897435896,,1,2,1768794789.588562
1768794789596.3745,1183.150183150183,,1,2,1768794789.5963745
1768794789604.187,1182.4175824175825,,1,2,1768794789.604187
1768794789611.9995,1178.7545787545787,,1,2,1768794789.6119995
1768794789619.812,1175.8241758241757,,1,2,1768794789.619812
1768794789627.6245,1180.2197802197802,,1,2,1768794789.6276245
1768794789635.437,1184.6153846153843,,1,2,1768794789.635437
1768794789643.2495,1197.8021978021975,,1,2,1768794789.6432495
1768794789651.062,1207.3260073260074,,1,2,1768794789.651062
1768794789658.8745,1221.9780219780218,,1,2,1768794789.6588745
1768794789666.687,1230.7692307692307,,1,2,1768794789.666687
1768794789674.4995,1241.7582417582416,,1,2,1768794789.6744995
1768794789682.312,1247.6190476190477,,1,2,1768794789.682312
1768794789690.1245,1256.4102564102564,,1,2,1768794789.6901245
1768794789697.937,1265.2014652014652,,1,2,1768794789.697937
1768794789705.7495,1276.923076923077,,1,2,1768794789.7057495
1768794789713.562,1282.051282051282,,1,2,1768794789.713562
1768794789721.3745,1290.10989010989,,1,2,1768794789.7213745
1768794789729.187,1296.7032967032967,,1,2,1768794789.729187
1768794789736.9995,1306.9597069597069,,1,2,1768794789.7369995
1768794789744.812,1315.7509157509155,,1,2,1768794789.744812
1768794789752.6245,1323.076923076923,,1,2,1768794789.7526245
1768794789760.437,1330.4029304029302,,1,2,1768794789.760437
1768794789768.2495,1336.9963369963368,,1,2,1768794789.7682495
1768794789776.062,1348.7179487179487,,1,2,1768794789.776062
1768794789783.8745,1353.8461538461538,,1,2,1768794789.7838745
1768794789791.687,1362.6373626373625,,1,2,1768794789.791687
1768794789799.4995,1361.904761904762,,1,2,1768794789.7994995
1768794789807.312,1363.3699633699632,,1,2,1768794789.807312
1768794789815.1245,1360.4395604395604,,1,2,1768794789.8151245
1768794789822.937,1360.4395604395604,,1,2,1768794789.822937
1768794789830.7495,1358.974358974359,,1,2,1768794789.8307495
1768794789838.562,1358.241758241758,,1,2,1768794789.838562
1768794789846.3745,1358.974358974359,,1,2,1768794789.8463745
1768794789854.187,1354.5787545787546,,1,2,1768794789.854187
1768794789861.9995,1356.7765567765566,,1,2,1768794789.8619995
1768794789869.812,1358.241758241758,,1,2,1768794789.869812
1768794789877.6245,1362.6373626373625,,1,2,1768794789.8776245
1768794789885.437,1361.904761904762,,1,2,1768794789.885437
1768794789893.2495,1358.241758241758,,1,2,1768794789.8932495
1768794789901.062,1356.043956043956,,1,2,1768794789.901062
1768794789908.8745,1351.6483516483515,,1,2,1768794789.9088745
1768794789916.687,1347.985347985348,,1,2,1768794789.916687
1768794789924.4995,1345.7875457875457,,1,2,1768794789.9244995
1768794789932.312,1341.3919413919414,,1,2,1768794789.932312
1768794789940.1245,1345.054945054945,,1,2,1768794789.9401245
1768794789947.937,1345.054945054945,,1,2,1768794789.947937
1768794789955.7495,1351.6483516483515,,1,2,1768794789.9557495
1768794789963.562,1364.102564102564,,1,2,1768794789.963562
1768794789971.3745,1373.6263736263736,,1,2,1768794789.9713745
1768794789979.187,1383.150183150183,,1,2,1768794789.979187
1768794789986.9995,1385.3479853479853,,1,2,1768794789.9869995
1768794789994.812,1391.941391941392,,1,2,1768794789.994812
1768794790002.6245,1397.069597069597,,1,2,1768794790.0026245
1768794790010.437,1397.8021978021975,,1,2,1768794790.010437
1768794790018.2495,1393.4065934065934,,1,2,1768794790.0182495
1768794790026.062,1386.080586080586,,1,2,1768794790.026062
1768794790033.8745,1379.4871794871794,,1,2,1768794790.0338745
1768794790041.687,1367.7655677655678,,1,2,1768794790.041687
1768794790049.4995,1361.1721611721612,,1,2,1768794790.0494995
1768794790057.312,1352.3809523809523,,1,2,1768794790.057312
1768794790065.1245,1350.18315018315,,1,2,1768794790.0651245
1768794790072.937,1345.7875457875457,,1,2,1768794790.072937
1768794790080.7495,1348.7179487179487,,1,2,1768794790.0807495
1768794790088.562,1347.2527472527472,,1,2,1768794790.088562
1768794790096.3745,1352.3809523809523,,1,2,1768794790.0963745
1768794790104.187,1352.3809523809523,,1,2,1768794790.104187
1768794790111.9995,1352.3809523809523,,0,-1,1768794790.1119995
1768794790119.812,1346.5201465201465,,0,-1,1768794790.119812
1768794790127.6245,1342.124542124542,,0,-1,1768794790.1276245
1768794790135.437,1337.7289377289376,,0,-1,1768794790.135437
1768794790143.2495,1336.263736263736,,0,-1,1768794790.1432495
1768794790151.062,1333.3333333333333,,0,-1,1768794790.151062
1768794790158.8745,1338.4615384615383,,0,-1,1768794790.1588745
1768794790166.687,1338.4615384615383,,0,-1,1768794790.166687
1768794790174.4995,1345.054945054945,,0,-1,1768794790.1744995
1768794790182.312,1345.7875457875457,,0,-1,1768794790.182312
1768794790190.1245,1345.054945054945,,0,-1,1768794790.1901245
1768794790197.937,1342.124542124542,,0,-1,1768794790.197937
1768794790205.7495,1337.7289377289376,,0,-1,1768794790.2057495
1768794790213.562,1336.263736263736,,0,-1,1768794790.213562
1768794790221.3745,1331.8681318681315,,0,-1,1768794790.2213745
1768794790229.187,1331.8681318681315,,0,-1,1768794790.229187
1768794790236.9995,1335.5311355311355,,0,-1,1768794790.2369995
1768794790244.812,1336.9963369963368,,0,-1,1768794790.244812
1768794790252.6245,1341.3919413919414,,0,-1,1768794790.2526245
1768794790260.437,1340.6593406593406,,0,-1,1768794790.260437
1768794790268.2495,1339.194139194139,,0,-1,1768794790.2682495
1768794790276.062,1342.857142857143,,0,-1,1768794790.276062
1768794790283.8745,1342.124542124542,,0,-1,1768794790.2838745
1768794790291.687,1338.4615384615383,,0,-1,1768794790.291687
1768794790299.4995,1336.263736263736,,0,-1,1768794790.2994995
1768794790307.312,1330.4029304029302,,0,-1,1768794790.307312
1768794790315.1245,1326.739926739927,,0,-1,1768794790.3151245
1768794790322.937,1326.739926739927,,0,-1,1768794790.322937
1768794790330.7495,1324.5421245421244,,0,-1,1768794790.3307495
1768794790338.562,1328.937728937729,,0,-1,1768794790.338562
1768794790346.3745,1335.5311355311355,,0,-1,1768794790.3463745
1768794790354.187,1339.92673992674,,0,-1,1768794790.354187
1768794790361.9995,1345.054945054945,,0,-1,1768794790.3619995
1768794790369.812,1345.054945054945,,0,-1,1768794790.369812
1768794790377.6245,1342.124542124542,,0,-1,1768794790.3776245
1768794790385.437,1344.3223443223442,,0,-1,1768794790.385437
1768794790393.2495,1343.5897435897434,,0,-1,1768794790.3932495
1768794790401.062,1341.3919413919414,,0,-1,1768794790.401062
1768794790408.8745,1341.3919413919414,,0,-1,1768794790.4088745
1768794790416.687,1336.9963369963368,,0,-1,1768794790.416687
1768794790424.4995,1329.6703296703297,,0,-1,1768794790.4244995
1768794790432.312,1326.007326007326,,0,-1,1768794790.432312
1768794790440.1245,1320.14652014652,,0,-1,1768794790.4401245
1768794790447.937,1312.8205128205127,,0,-1,1768794790.447937
1768794790455.7495,1308.4249084249084,,0,-1,1768794790.4557495
1768794790463.562,1301.8315018315018,,0,-1,1768794790.463562
1768794790471.3745,1295.2380952380952,,0,-1,1768794790.4713745
1768794790479.187,1293.040293040293,,0,-1,1768794790.479187
1768794790486.9995,1290.8424908424909,,0,-1,1768794790.4869995
1768794790494.812,1285.7142857142856,,0,-1,1768794790.494812
1768794790502.6245,1283.5164835164835,,0,-1,1768794790.5026245
1768794790510.437,1284.9816849816848,,0,-1,1768794790.510437
1768794790518.2495,1285.7142857142856,,0,-1,1768794790.5182495
1768794790526.062,1287.9120879120878,,0,-1,1768794790.526062
1768794790533.8745,1295.970695970696,,0,-1,1768794790.5338745
1768794790541.687,1307.6923076923076,,0,-1,1768794790.541687
1768794790549.4995,1318.6813186813183,,0,-1,1768794790.5494995
1768794790557.312,1327.4725274725274,,0,-1,1768794790.557312
1768794790565.1245,1338.4615384615383,,0,-1,1768794790.5651245
1768794790572.937,1346.5201465201465,,0,-1,1768794790.572937
1768794790580.7495,1358.974358974359,,0,-1,1768794790.5807495
1768794790588.562,1369.9633699633698,,0,-1,1768794790.588562
1768794790596.3745,1378.021978021978,,0,-1,1768794790.5963745
1768794790604.187,1389.0109890109889,,0,-1,1768794790.604187
1768794790611.9995,1395.6043956043954,,0,-1,1768794790.6119995
1768794790619.812,1398.5347985347985,,0,-1,1768794790.619812
1768794790627.6245,1404.3956043956043,,0,-1,1768794790.6276245
1768794790635.437,1413.9194139194135,,0,-1,1768794790.635437
1768794790643.2495,1424.175824175824,,0,-1,1768794790.6432495
1768794790651.062,1432.9670329670328,,0,-1,1768794790.651062
1768794790658.8745,1439.5604395604394,,0,-1,1768794790.6588745
1768794790666.687,1446.153846153846,,0,-1,1768794790.666687
1768794790674.4995,1449.084249084249,,0,-1,1768794790.6744995
1768794790682.312,1454.212454212454,,0,-1,1768794790.682312
1768794790690.1245,1460.07326007326,,0,-1,1768794790.6901245
1768794790697.937,1460.07326007326,,0,-1,1768794790.697937
1768794790705.7495,1462.2710622710622,,0,-1,1768794790.7057495
1768794790713.562,1457.875457875458,,0,-1,1768794790.713562
1768794790721.3745,1450.5494505494505,,0,-1,1768794790.7213745
1768794790729.187,1445.4212454212454,,0,-1,1768794790.729187
1768794790736.9995,1434.4322344322345,,0,-1,1768794790.7369995
1768794790744.812,1429.3040293040292,,0,-1,1768794790.744812
1768794790752.6245,1421.9780219780218,,0,-1,1768794790.7526245
1768794790760.437,1414.6520146520145,,0,-1,1768794790.760437
1768794790768.2495,1405.128205128205,,0,-1,1768794790.7682495
1768794790776.062,1395.6043956043954,,0,-1,1768794790.776062
1768794790783.8745,1387.5457875457876,,0,-1,1768794790.7838745
1768794790791.687,1379.4871794871794,,0,-1,1768794790.791687
1768794790799.4995,1380.2197802197802,,0,-1,1768794790.7994995
1768794790807.312,1379.4871794871794,,0,-1,1768794790.807312
1768794790815.1245,1387.5457875457876,,0,-1,1768794790.8151245
1768794790822.937,1396.3369963369962,,0,-1,1768794790.822937
1768794790830.7495,1405.128205128205,,0,-1,1768794790.8307495
1768794790838.562,1412.4542124542124,,0,-1,1768794790.838562
1768794790846.3745,1410.2564102564102,,0,-1,1768794790.8463745
1768794790854.187,1410.2564102564102,,0,-1,1768794790.854187
1768794790861.9995,1408.7912087912086,,0,-1,1768794790.8619995
1768794790869.812,1408.058608058608,,0,-1,1768794790.869812
1768794790877.6245,1410.2564102564102,,0,-1,1768794790.8776245
1768794790885.437,1411.7216117216117,,0,-1,1768794790.885437
1768794790893.2495,1410.989010989011,,0,-1,1768794790.8932495
1768794790901.062,1413.9194139194135,,0,-1,1768794790.901062
1768794790908.8745,1413.1868131868132,,0,-1,1768794790.9088745
1768794790916.687,1413.9194139194135,,0,-1,1768794790.916687
1768794790924.4995,1414.6520146520145,,0,-1,1768794790.9244995
1768794790932.312,1411.7216117216117,,0,-1,1768794790.932312
1768794790940.1245,1411.7216117216117,,0,-1,1768794790.9401245
1768794790947.937,1403.6630036630036,,0,-1,1768794790.947937
1768794790955.7495,1392.6739926739926,,0,-1,1768794790.9557495
1768794790963.562,1384.6153846153843,,0,-1,1768794790.963562
1768794790971.3745,1376.5567765567764,,0,-1,1768794790.9713745
1768794790979.187,1375.091575091575,,0,-1,1768794790.979187
1768794790986.9995,1372.8937728937728,,0,-1,1768794790.9869995
1768794790994.812,1374.3589743589744,,0,-1,1768794790.994812
1768794791002.6245,1376.5567765567764,,0,-1,1768794791.0026245
1768794791010.437,1375.8241758241757,,0,-1,1768794791.010437
1768794791018.2495,1381.6849816849815,,0,-1,1768794791.0182495
1768794791026.062,1380.952380952381,,0,-1,1768794791.026062
1768794791033.8745,1377.2893772893772,,0,-1,1768794791.0338745
1768794791041.687,1372.8937728937728,,0,-1,1768794791.041687
1768794791049.4995,1364.102564102564,,0,-1,1768794791.0494995
1768794791057.312,1361.904761904762,,0,-1,1768794791.057312
1768794791065.1245,1361.1721611721612,,0,-1,1768794791.0651245
1768794791072.937,1363.3699633699632,,0,-1,1768794791.072937
1768794791080.7495,1362.6373626373625,,0,-1,1768794791.0807495
1768794791088.562,1358.974358974359,,0,-1,1768794791.088562
1768794791096.3745,1358.241758241758,,0,-1,1768794791.0963745
1768794791104.187,1356.043956043956,,0,-1,1768794791.104187
1768794791111.9995,1356.043956043956,,0,-1,1768794791.1119995
1768794791119.812,1349.4505494505493,,0,-1,1768794791.119812
1768794791127.6245,1346.5201465201465,,0,-1,1768794791.1276245
1768794791135.437,1337.7289377289376,,0,-1,1768794791.135437
1768794791143.2495,1334.7985347985348,,0,-1,1768794791.1432495
1768794791151.062,1336.263736263736,,0,-1,1768794791.151062
1768794791158.8745,1334.7985347985348,,0,-1,1768794791.1588745
1768794791166.687,1331.135531135531,,0,-1,1768794791.166687
1768794791174.4995,1328.2051282051282,,0,-1,1768794791.1744995
1768794791182.312,1323.076923076923,,0,-1,1768794791.182312
1768794791190.1245,1319.4139194139193,,0,-1,1768794791.1901245
1768794791197.937,1314.2857142857142,,0,-1,1768794791.197937
1768794791205.7495,1312.8205128205127,,0,-1,1768794791.2057495
1768794791213.562,1308.4249084249084,,0,-1,1768794791.213562
1768794791221.3745,1302.5641025641023,,0,-1,1768794791.2213745
1768794791229.187,1298.168498168498,,0,-1,1768794791.229187
1768794791236.9995,1299.6336996336995,,0,-1,1768794791.2369995
1768794791244.812,1301.8315018315018,,0,-1,1768794791.244812
1768794791252.6245,1305.4945054945051,,0,-1,1768794791.2526245
1768794791260.437,1306.227106227106,,0,-1,1768794791.260437
1768794791268.2495,1303.2967032967033,,0,-1,1768794791.2682495
1768794791276.062,1305.4945054945051,,0,-1,1768794791.276062
1768794791283.8745,1307.6923076923076,,0,-1,1768794791.2838745
1768794791291.687,1305.4945054945051,,0,-1,1768794791.291687
1768794791299.4995,1306.9597069597069,,0,-1,1768794791.2994995
1768794791307.312,1304.0293040293038,,0,-1,1768794791.307312
1768794791315.1245,1306.227106227106,,0,-1,1768794791.3151245
1768794791322.937,1306.9597069597069,,0,-1,1768794791.322937
1768794791330.7495,1308.4249084249084,,0,-1,1768794791.3307495
1768794791338.562,1309.1575091575091,,0,-1,1768794791.338562
1768794791346.3745,1304.0293040293038,,0,-1,1768794791.3463745
1768794791354.187,1298.9010989010987,,0,-1,1768794791.354187
1768794791361.9995,1295.970695970696,,0,-1,1768794791.3619995
1768794791369.812,1290.10989010989,,0,-1,1768794791.369812
1768794791377.6245,1283.5164835164835,,0,-1,1768794791.3776245
1768794791385.437,1279.120879120879,,0,-1,1768794791.385437
1768794791393.2495,1279.120879120879,,0,-1,1768794791.3932495
1768794791401.062,1282.7838827838827,,0,-1,1768794791.401062
1768794791408.8745,1292.3076923076922,,0,-1,1768794791.4088745
1768794791416.687,1305.4945054945051,,0,-1,1768794791.416687
1768794791424.4995,1320.8791208791208,,0,-1,1768794791.4244995
1768794791432.312,1340.6593406593406,,0,-1,1768794791.432312
1768794791440.1245,1361.904761904762,,0,-1,1768794791.4401245
1768794791447.937,1387.5457875457876,,0,-1,1768794791.447937
1768794791455.7495,1408.058608058608,,0,-1,1768794791.4557495
1768794791463.562,1429.3040293040292,,0,-1,1768794791.463562
1768794791471.3745,1452.7472527472526,,0,-1,1768794791.4713745
1768794791479.187,1473.992673992674,,0,-1,1768794791.479187
1768794791486.9995,1492.3076923076922,,0,-1,1768794791.4869995
1768794791494.812,1505.4945054945051,,0,-1,1768794791.494812
1768794791502.6245,1516.4835164835165,,0,-1,1768794791.5026245
1768794791510.437,1523.0769230769229,,0,-1,1768794791.510437
1768794791518.2495,1528.2051282051282,,0,-1,1768794791.5182495
1768794791526.062,1532.6007326007325,,0,-1,1768794791.526062
1768794791533.8745,1539.92673992674,,0,-1,1768794791.5338745
1768794791541.687,1547.985347985348,,0,-1,1768794791.541687
1768794791549.4995,1551.6483516483515,,0,-1,1768794791.5494995
1768794791557.312,1558.241758241758,,0,-1,1768794791.557312
1768794791565.1245,1566.3003663003662,,0,-1,1768794791.5651245
1768794791572.937,1571.428571428571,,0,-1,1768794791.572937
1768794791580.7495,1570.6959706959706,,0,-1,1768794791.5807495
1768794791588.562,1568.4981684981683,,0,-1,1768794791.588562
1768794791596.3745,1567.032967032967,,0,-1,1768794791.5963745
1768794791604.187,1567.032967032967,,0,-1,1768794791.604187
1768794791611.9995,1571.428571428571,,0,-1,1768794791.6119995
1768794791619.812,1574.3589743589744,,0,-1,1768794791.619812
1768794791627.6245,1576.5567765567764,,0,-1,1768794791.6276245
1768794791635.437,1578.7545787545787,,0,-1,1768794791.635437
1768794791643.2495,1580.9523809523807,,0,-1,1768794791.6432495
1768794791651.062,1583.150183150183,,0,-1,1768794791.651062
1768794791658.8745,1578.7545787545787,,0,-1,1768794791.6588745
1768794791666.687,1569.230769230769,,0,-1,1768794791.666687
1768794791674.4995,1556.043956043956,,0,-1,1768794791.6744995
1768794791682.312,1543.5897435897434,,0,-1,1768794791.682312
1768794791690.1245,1533.3333333333333,,0,-1,1768794791.6901245
1768794791697.937,1526.007326007326,,0,-1,1768794791.697937
1768794791705.7495,1523.8095238095236,,0,-1,1768794791.7057495
1768794791713.562,1519.4139194139193,,0,-1,1768794791.713562
1768794791721.3745,1519.4139194139193,,0,-1,1768794791.7213745
1768794791729.187,1522.3443223443223,,0,-1,1768794791.729187
1768794791736.9995,1528.2051282051282,,0,-1,1768794791.7369995
1768794791744.812,1535.5311355311355,,0,-1,1768794791.744812
1768794791752.6245,1535.5311355311355,,0,-1,1768794791.7526245
1768794791760.437,1533.3333333333333,,0,-1,1768794791.760437
1768794791768.2495,1532.6007326007325,,0,-1,1768794791.7682495
1768794791776.062,1538.4615384615383,,0,-1,1768794791.776062
1768794791783.8745,1543.5897435897434,,0,-1,1768794791.7838745
1768794791791.687,1548.7179487179485,,0,-1,1768794791.791687
1768794791799.4995,1550.9157509157508,,0,-1,1768794791.7994995
1768794791807.312,1547.985347985348,,0,-1,1768794791.807312
1768794791815.1245,1546.5201465201465,,0,-1,1768794791.8151245
1768794791822.937,1544.3223443223442,,0,-1,1768794791.822937
1768794791830.7495,1543.5897435897434,,0,-1,1768794791.8307495
1768794791838.562,1542.124542124542,,0,-1,1768794791.838562
1768794791846.3745,1538.4615384615383,,0,-1,1768794791.8463745
1768794791854.187,1532.6007326007325,,0,-1,1768794791.854187
1768794791861.9995,1523.0769230769229,,0,-1,1768794791.8619995
1768794791869.812,1512.8205128205127,,0,-1,1768794791.869812
1768794791877.6245,1504.0293040293038,,0,-1,1768794791.8776245
1768794791885.437,1499.6336996336995,,0,-1,1768794791.885437
1768794791893.2495,1495.970695970696,,0,-1,1768794791.8932495
1768794791901.062,1491.5750915750914,,0,-1,1768794791.901062
1768794791908.8745,1488.6446886446886,,0,-1,1768794791.9088745
1768794791916.687,1487.9120879120878,,0,-1,1768794791.916687
1768794791924.4995,1487.179487179487,,0,-1,1768794791.9244995
1768794791932.312,1484.9816849816848,,0,-1,1768794791.932312
1768794791940.1245,1482.051282051282,,0,-1,1768794791.9401245
1768794791947.937,1481.3186813186812,,0,-1,1768794791.947937
1768794791955.7495,1474.7252747252746,,0,-1,1768794791.9557495
1768794791963.562,1468.131868131868,,0,-1,1768794791.963562
1768794791971.3745,1460.805860805861,,0,-1,1768794791.9713745
1768794791979.187,1452.014652014652,,0,-1,1768794791.979187
1768794791986.9995,1443.2234432234432,,0,-1,1768794791.9869995
1768794791994.812,1434.4322344322345,,0,-1,1768794791.994812
1768794792002.6245,1421.9780219780218,,0,-1,1768794792.0026245
1768794792010.437,1412.4542124542124,,0,-1,1768794792.010437
1768794792018.2495,1402.197802197802,,0,-1,1768794792.0182495
1768794792026.062,1391.941391941392,,0,-1,1768794792.026062
1768794792033.8745,1386.080586080586,,0,-1,1768794792.0338745
1768794792041.687,1388.278388278388,,0,-1,1768794792.041687
1768794792049.4995,1393.4065934065934,,0,-1,1768794792.0494995
1768794792057.312,1399.2673992673992,,0,-1,1768794792.057312
1768794792065.1245,1404.3956043956043,,0,-1,1768794792.0651245
1768794792072.937,1409.5238095238094,,0,-1,1768794792.072937
1768794792080.7495,1410.989010989011,,0,-1,1768794792.0807495
1768794792088.562,1411.7216117216117,,0,-1,1768794792.088562
1768794792096.3745,1410.989010989011,,0,-1,1768794792.0963745
1768794792104.187,1406.5934065934066,,0,-1,1768794792.104187
1768794792111.9995,1399.2673992673992,,0,-1,1768794792.1119995
1768794792119.812,1394.8717948717947,,0,-1,1768794792.119812
1768794792127.6245,1394.8717948717947,,0,-1,1768794792.1276245
1768794792135.437,1394.8717948717947,,0,-1,1768794792.135437
1768794792143.2495,1397.8021978021975,,0,-1,1768794792.1432495
1768794792151.062,1401.4652014652013,,0,-1,1768794792.151062
1768794792158.8745,1400.0,,0,-1,1768794792.1588745
1768794792166.687,1397.069597069597,,0,-1,1768794792.166687
1768794792174.4995,1390.4761904761904,,0,-1,1768794792.1744995
1768794792182.312,1385.3479853479853,,0,-1,1768794792.182312
1768794792190.1245,1380.952380952381,,0,-1,1768794792.1901245
1768794792197.937,1375.8241758241757,,0,-1,1768794792.197937
1768794792205.7495,1372.161172161172,,0,-1,1768794792.2057495
1768794792213.562,1369.9633699633698,,0,-1,1768794792.213562
1768794792221.3745,1364.8351648351647,,0,-1,1768794792.2213745
1768794792229.187,1360.4395604395604,,0,-1,1768794792.229187
1768794792236.9995,1357.5091575091574,,0,-1,1768794792.2369995
1768794792244.812,1354.5787545787546,,0,-1,1768794792.244812
1768794792252.6245,1348.7179487179487,,0,-1,1768794792.2526245
1768794792260.437,1340.6593406593406,,0,-1,1768794792.260437
1768794792268.2495,1334.7985347985348,,0,-1,1768794792.2682495
1768794792276.062,1331.8681318681315,,0,-1,1768794792.276062
1768794792283.8745,1328.2051282051282,,0,-1,1768794792.2838745
1768794792291.687,1326.739926739927,,0,-1,1768794792.291687
1768794792299.4995,1325.2747252747251,,0,-1,1768794792.2994995
1768794792307.312,1326.007326007326,,0,-1,1768794792.307312
1768794792315.1245,1330.4029304029302,,0,-1,1768794792.3151245
1768794792322.937,1336.9963369963368,,0,-1,1768794792.322937
1768794792330.7495,1346.5201465201465,,0,-1,1768794792.3307495
1768794792338.562,1361.1721611721612,,0,-1,1768794792.338562
1768794792346.3745,1384.6153846153843,,0,-1,1768794792.3463745
1768794792354.187,1411.7216117216117,,0,-1,1768794792.354187
1768794792361.9995,1441.7582417582416,,0,-1,1768794792.3619995
1768794792369.812,1470.3296703296703,,0,-1,1768794792.369812
1768794792377.6245,1500.3663003663005,,0,-1,1768794792.3776245
1768794792385.437,1530.4029304029302,,0,-1,1768794792.385437
1768794792393.2495,1557.5091575091574,,0,-1,1768794792.3932495
1768794792401.062,1584.6153846153843,,0,-1,1768794792.401062
1768794792408.8745,1612.4542124542124,,0,-1,1768794792.4088745
1768794792416.687,1638.8278388278386,,0,-1,1768794792.416687
1768794792424.4995,1663.7362637362637,,0,-1,1768794792.4244995
1768794792432.312,1685.7142857142856,,0,-1,1768794792.432312
1768794792440.1245,1700.3663003663005,,0,-1,1768794792.4401245
1768794792447.937,1708.4249084249084,,0,-1,1768794792.447937
1768794792455.7495,1714.2857142857142,,0,-1,1768794792.4557495
1768794792463.562,1720.14652014652,,0,-1,1768794792.463562
1768794792471.3745,1725.2747252747251,,0,-1,1768794792.4713745
1768794792479.187,1731.8681318681315,,0,-1,1768794792.479187
1768794792486.9995,1736.9963369963368,,0,-1,1768794792.4869995
1768794792494.812,1739.194139194139,,0,-1,1768794792.494812
1768794792502.6245,1742.857142857143,,0,-1,1768794792.5026245
1768794792510.437,1739.194139194139,,0,-1,1768794792.510437
1768794792518.2495,1736.9963369963368,,0,-1,1768794792.5182495
1768794792526.062,1734.7985347985348,,0,-1,1768794792.526062
1768794792533.8745,1731.135531135531,,0,-1,1768794792.5338745
1768794792541.687,1726.007326007326,,0,-1,1768794792.541687
1768794792549.4995,1721.6117216117216,,0,-1,1768794792.5494995
1768794792557.312,1717.216117216117,,0,-1,1768794792.557312
1768794792565.1245,1715.7509157509155,,0,-1,1768794792.5651245
1768794792572.937,1716.4835164835165,,0,-1,1768794792.572937
1768794792580.7495,1717.216117216117,,0,-1,1768794792.5807495
1768794792588.562,1715.7509157509155,,0,-1,1768794792.588562
1768794792596.3745,1709.1575091575091,,0,-1,1768794792.5963745
1768794792604.187,1701.098901098901,,0,-1,1768794792.604187
1768794792611.9995,1692.3076923076922,,0,-1,1768794792.6119995
1768794792619.812,1680.5860805860805,,0,-1,1768794792.619812
1768794792627.6245,1671.0622710622708,,0,-1,1768794792.6276245
1768794792635.437,1664.4688644688645,,0,-1,1768794792.635437
1768794792643.2495,1657.875457875458,,0,-1,1768794792.6432495
1768794792651.062,1649.8168498168498,,0,-1,1768794792.651062
1768794792658.8745,1638.8278388278386,,0,-1,1768794792.6588745
1768794792666.687,1630.7692307692307,,0,-1,1768794792.666687
1768794792674.4995,1625.6410256410256,,0,-1,1768794792.6744995
1768794792682.312,1619.047619047619,,0,-1,1768794792.682312
1768794792690.1245,1614.6520146520145,,0,-1,1768794792.6901245
1768794792697.937,1610.989010989011,,0,-1,1768794792.697937
1768794792705.7495,1610.989010989011,,0,-1,1768794792.7057495
1768794792713.562,1609.5238095238094,,0,-1,1768794792.713562
1768794792721.3745,1607.3260073260071,,0,-1,1768794792.7213745
1768794792729.187,1605.128205128205,,0,-1,1768794792.729187
1768794792736.9995,1604.3956043956043,,0,-1,1768794792.7369995
1768794792744.812,1605.128205128205,,0,-1,1768794792.744812
1768794792752.6245,1602.9304029304028,,0,-1,1768794792.7526245
1768794792760.437,1599.2673992673992,,0,-1,1768794792.760437
1768794792768.2495,1597.069597069597,,0,-1,1768794792.7682495
1768794792776.062,1594.8717948717947,,0,-1,1768794792.776062
1768794792783.8745,1592.6739926739926,,0,-1,1768794792.7838745
1768794792791.687,1591.2087912087911,,1,3,1768794792.791687
1768794792799.4995,1587.545787545787,,1,3,1768794792.7994995
1768794792807.312,1579.4871794871794,,1,3,1768794792.807312
1768794792815.1245,1569.230769230769,,1,3,1768794792.8151245
1768794792822.937,1556.043956043956,,1,3,1768794792.822937
1768794792830.7495,1541.3919413919414,,1,3,1768794792.8307495
1768794792838.562,1527.4725274725274,,1,3,1768794792.838562
1768794792846.3745,1512.8205128205127,,1,3,1768794792.8463745
1768794792854.187,1499.6336996336995,,1,3,1768794792.854187
1768794792861.9995,1489.3772893772891,,1,3,1768794792.8619995
1768794792869.812,1482.7838827838827,,1,3,1768794792.869812
1768794792877.6245,1476.923076923077,,1,3,1768794792.8776245
1768794792885.437,1471.7948717948716,,1,3,1768794792.885437
1768794792893.2495,1465.201465201465,,1,3,1768794792.8932495
1768794792901.062,1459.3406593406592,,1,3,1768794792.901062
1768794792908.8745,1456.4102564102564,,1,3,1768794792.9088745
1768794792916.687,1454.212454212454,,1,3,1768794792.916687
1768794792924.4995,1450.5494505494505,,1,3,1768794792.9244995
1768794792932.312,1448.3516483516482,,1,3,1768794792.932312
1768794792940.1245,1443.2234432234432,,1,3,1768794792.9401245
1768794792947.937,1438.095238095238,,1,3,1768794792.947937
1768794792955.7495,1431.5018315018317,,1,3,1768794792.9557495
1768794792963.562,1423.4432234432234,,1,3,1768794792.963562
1768794792971.3745,1416.117216117216,,1,3,1768794792.9713745
1768794792979.187,1411.7216117216117,,1,3,1768794792.979187
1768794792986.9995,1407.3260073260071,,1,3,1768794792.9869995
1768794792994.812,1400.7326007326003,,1,3,1768794792.994812
1768794793002.6245,1395.6043956043954,,1,3,1768794793.0026245
1768794793010.437,1392.6739926739926,,1,3,1768794793.010437
1768794793018.2495,1389.7435897435896,,1,3,1768794793.0182495
1768794793026.062,1388.278388278388,,1,3,1768794793.026062
1768794793033.8745,1386.080586080586,,1,3,1768794793.0338745
1768794793041.687,1383.150183150183,,1,3,1768794793.041687
1768794793049.4995,1380.952380952381,,1,3,1768794793.0494995
1768794793057.312,1377.2893772893772,,1,3,1768794793.057312
1768794793065.1245,1375.8241758241757,,1,3,1768794793.0651245
1768794793072.937,1369.230769230769,,1,3,1768794793.072937
1768794793080.7495,1361.1721611721612,,1,3,1768794793.0807495
1768794793088.562,1352.3809523809523,,1,3,1768794793.088562
1768794793096.3745,1345.054945054945,,1,3,1768794793.0963745
1768794793104.187,1338.4615384615383,,1,3,1768794793.104187
1768794793111.9995,1328.937728937729,,1,3,1768794793.1119995
1768794793119.812,1317.9487179487178,,1,3,1768794793.119812
1768794793127.6245,1309.89010989011,,1,3,1768794793.1276245
1768794793135.437,1303.2967032967033,,1,3,1768794793.135437
1768794793143.2495,1300.3663003663005,,1,3,1768794793.1432495
1768794793151.062,1300.3663003663005,,1,3,1768794793.151062
1768794793158.8745,1301.098901098901,,1,3,1768794793.1588745
1768794793166.687,1300.3663003663005,,1,3,1768794793.166687
1768794793174.4995,1298.168498168498,,1,3,1768794793.1744995
1768794793182.312,1298.168498168498,,1,3,1768794793.182312
1768794793190.1245,1299.6336996336995,,1,3,1768794793.1901245
1768794793197.937,1301.098901098901,,1,3,1768794793.197937
1768794793205.7495,1300.3663003663005,,1,3,1768794793.2057495
1768794793213.562,1298.168498168498,,1,3,1768794793.213562
1768794793221.3745,1295.2380952380952,,1,3,1768794793.2213745
1768794793229.187,1287.9120879120878,,1,3,1768794793.229187
1768794793236.9995,1277.6556776556777,,1,3,1768794793.2369995
1768794793244.812,1268.131868131868,,1,3,1768794793.244812
1768794793252.6245,1257.142857142857,,1,3,1768794793.2526245
1768794793260.437,1245.4212454212454,,1,3,1768794793.260437
1768794793268.2495,1230.7692307692307,,1,3,1768794793.2682495
1768794793276.062,1217.5824175824175,,1,3,1768794793.276062
1768794793283.8745,1208.058608058608,,1,3,1768794793.2838745
1768794793291.687,1200.7326007326008,,1,3,1768794793.291687
1768794793299.4995,1202.9304029304028,,1,3,1768794793.2994995
1768794793307.312,1208.7912087912086,,1,3,1768794793.307312
1768794793315.1245,1219.7802197802198,,1,3,1768794793.3151245
1768794793322.937,1231.5018315018317,,1,3,1768794793.322937
1768794793330.7495,1242.4908424908424,,1,3,1768794793.3307495
1768794793338.562,1254.212454212454,,1,3,1768794793.338562
1768794793346.3745,1263.003663003663,,1,3,1768794793.3463745
1768794793354.187,1271.062271062271,,1,3,1768794793.354187
1768794793361.9995,1278.3882783882782,,1,3,1768794793.3619995
1768794793369.812,1293.7728937728937,,1,3,1768794793.369812
1768794793377.6245,1315.018315018315,,1,3,1768794793.3776245
1768794793385.437,1339.194139194139,,1,3,1768794793.385437
1768794793393.2495,1370.6959706959706,,1,3,1768794793.3932495
1768794793401.062,1407.3260073260071,,1,3,1768794793.401062
1768794793408.8745,1448.3516483516482,,1,3,1768794793.4088745
1768794793416.687,1489.3772893772891,,1,3,1768794793.416687
1768794793424.4995,1524.5421245421244,,1,3,1768794793.4244995
1768794793432.312,1556.043956043956,,1,3,1768794793.432312
1768794793440.1245,1580.2197802197802,,1,3,1768794793.4401245
1768794793447.937,1601.4652014652013,,1,3,1768794793.447937
1768794793455.7495,1619.7802197802196,,1,3,1768794793.4557495
1768794793463.562,1638.8278388278386,,1,3,1768794793.463562
1768794793471.3745,1654.212454212454,,1,3,1768794793.4713745
1768794793479.187,1666.6666666666663,,1,3,1768794793.479187
1768794793486.9995,1672.5274725274724,,1,3,1768794793.4869995
1768794793494.812,1674.7252747252746,,1,3,1768794793.494812
1768794793502.6245,1676.190476190476,,1,3,1768794793.5026245
1768794793510.437,1675.4578754578754,,1,3,1768794793.510437
1768794793518.2495,1673.260073260073,,1,3,1768794793.5182495
1768794793526.062,1671.0622710622708,,1,3,1768794793.526062
1768794793533.8745,1663.003663003663,,1,3,1768794793.5338745
1768794793541.687,1656.4102564102564,,1,3,1768794793.541687
1768794793549.4995,1653.479853479853,,1,3,1768794793.5494995
1768794793557.312,1649.084249084249,,1,3,1768794793.557312
1768794793565.1245,1643.956043956044,,1,3,1768794793.5651245
1768794793572.937,1640.29304029304,,1,3,1768794793.572937
1768794793580.7495,1635.164835164835,,1,3,1768794793.5807495
1768794793588.562,1630.7692307692307,,1,3,1768794793.588562
1768794793596.3745,1622.7106227106226,,1,3,1768794793.5963745
1768794793604.187,1611.7216117216117,,1,3,1768794793.604187
1768794793611.9995,1600.0,,1,3,1768794793.6119995
1768794793619.812,1586.080586080586,,1,3,1768794793.619812
1768794793627.6245,1575.8241758241757,,1,3,1768794793.6276245
1768794793635.437,1564.8351648351647,,1,3,1768794793.635437
1768794793643.2495,1555.311355311355,,1,3,1768794793.6432495
1768794793651.062,1546.5201465201465,,1,3,1768794793.651062
1768794793658.8745,1538.4615384615383,,1,3,1768794793.6588745
1768794793666.687,1531.8681318681315,,1,3,1768794793.666687
1768794793674.4995,1524.5421245421244,,1,3,1768794793.6744995
1768794793682.312,1519.4139194139193,,1,3,1768794793.682312
1768794793690.1245,1515.7509157509155,,1,3,1768794793.6901245
1768794793697.937,1512.087912087912,,1,3,1768794793.697937
1768794793705.7495,1509.1575091575091,,1,3,1768794793.7057495
1768794793713.562,1507.6923076923076,,1,3,1768794793.713562
1768794793721.3745,1506.9597069597069,,1,3,1768794793.7213745
1768794793729.187,1504.0293040293038,,1,3,1768794793.729187
1768794793736.9995,1501.098901098901,,1,3,1768794793.7369995
1768794793744.812,1497.4358974358972,,1,3,1768794793.744812
1768794793752.6245,1492.3076923076922,,1,3,1768794793.7526245
1768794793760.437,1490.10989010989,,1,3,1768794793.760437
1768794793768.2495,1487.179487179487,,1,3,1768794793.7682495
1768794793776.062,1480.5860805860805,,1,3,1768794793.776062
1768794793783.8745,1478.3882783882782,,1,3,1768794793.7838745
1768794793791.687,1479.120879120879,,1,3,1768794793.791687
1768794793799.4995,1479.8534798534797,,1,3,1768794793.7994995
1768794793807.312,1479.120879120879,,1,3,1768794793.807312
1768794793815.1245,1476.923076923077,,1,3,1768794793.8151245
1768794793822.937,1469.5970695970695,,1,3,1768794793.822937
1768794793830.7495,1460.07326007326,,1,3,1768794793.8307495
1768794793838.562,1450.5494505494505,,1,3,1768794793.838562
1768794793846.3745,1441.0256410256409,,1,3,1768794793.8463745
1768794793854.187,1431.5018315018317,,1,3,1768794793.854187
1768794793861.9995,1421.9780219780218,,1,3,1768794793.8619995
1768794793869.812,1414.6520146520145,,1,3,1768794793.869812
1768794793877.6245,1410.989010989011,,1,3,1768794793.8776245
1768794793885.437,1408.058608058608,,1,3,1768794793.885437
1768794793893.2495,1404.3956043956043,,1,3,1768794793.8932495
1768794793901.062,1400.0,,1,3,1768794793.901062
1768794793908.8745,1394.8717948717947,,1,3,1768794793.9088745
1768794793916.687,1391.941391941392,,1,3,1768794793.916687
1768794793924.4995,1390.4761904761904,,1,3,1768794793.9244995
1768794793932.312,1391.2087912087911,,1,3,1768794793.932312
1768794793940.1245,1389.0109890109889,,1,3,1768794793.9401245
1768794793947.937,1384.6153846153843,,1,3,1768794793.947937
1768794793955.7495,1378.7545787545787,,1,3,1768794793.9557495
1768794793963.562,1375.8241758241757,,1,3,1768794793.963562
1768794793971.3745,1368.4981684981683,,1,3,1768794793.9713745
1768794793979.187,1357.5091575091574,,1,3,1768794793.979187
1768794793986.9995,1344.3223443223442,,1,3,1768794793.9869995
1768794793994.812,1333.3333333333333,,1,3,1768794793.994812
1768794794002.6245,1325.2747252747251,,1,3,1768794794.0026245
1768794794010.437,1319.4139194139193,,1,3,1768794794.010437
1768794794018.2495,1311.3553113553112,,1,3,1768794794.0182495
1768794794026.062,1307.6923076923076,,1,3,1768794794.026062
1768794794033.8745,1304.0293040293038,,1,3,1768794794.0338745
1768794794041.687,1298.9010989010987,,1,3,1768794794.041687
1768794794049.4995,1296.7032967032967,,1,3,1768794794.0494995
1768794794057.312,1293.040293040293,,1,3,1768794794.057312
1768794794065.1245,1289.3772893772891,,1,3,1768794794.0651245
1768794794072.937,1285.7142857142856,,1,3,1768794794.072937
1768794794080.7495,1283.5164835164835,,1,3,1768794794.0807495
1768794794088.562,1280.5860805860805,,1,3,1768794794.088562
1768794794096.3745,1280.5860805860805,,1,3,1768794794.0963745
1768794794104.187,1278.3882783882782,,1,3,1768794794.104187
1768794794111.9995,1277.6556776556777,,1,3,1768794794.1119995
1768794794119.812,1273.992673992674,,1,3,1768794794.119812
1768794794127.6245,1270.3296703296703,,1,3,1768794794.1276245
1768794794135.437,1267.3992673992673,,1,3,1768794794.135437
1768794794143.2495,1265.9340659340658,,1,3,1768794794.1432495
1768794794151.062,1263.003663003663,,1,3,1768794794.151062
1768794794158.8745,1257.875457875458,,1,3,1768794794.1588745
1768794794166.687,1253.479853479853,,1,3,1768794794.166687
1768794794174.4995,1249.084249084249,,1,3,1768794794.1744995
1768794794182.312,1241.7582417582416,,1,3,1768794794.182312
1768794794190.1245,1232.967032967033,,1,3,1768794794.1901245
1768794794197.937,1228.5714285714284,,1,3,1768794794.197937
1768794794205.7495,1228.5714285714284,,1,3,1768794794.2057495
1768794794213.562,1229.3040293040292,,1,3,1768794794.213562
1768794794221.3745,1230.7692307692307,,1,3,1768794794.2213745
1768794794229.187,1231.5018315018317,,1,3,1768794794.229187
1768794794236.9995,1231.5018315018317,,1,3,1768794794.2369995
1768794794244.812,1233.6996336996335,,1,3,1768794794.244812
1768794794252.6245,1236.6300366300366,,1,3,1768794794.2526245
1768794794260.437,1238.095238095238,,1,3,1768794794.260437
1768794794268.2495,1239.5604395604396,,1,3,1768794794.2682495
1768794794276.062,1241.0256410256409,,1,3,1768794794.276062
1768794794283.8745,1243.2234432234432,,1,3,1768794794.2838745
1768794794291.687,1246.153846153846,,1,3,1768794794.291687
1768794794299.4995,1251.2820512820513,,1,3,1768794794.2994995
1768794794307.312,1256.4102564102564,,1,3,1768794794.307312
1768794794315.1245,1260.07326007326,,1,3,1768794794.3151245
1768794794322.937,1263.7362637362637,,1,3,1768794794.322937
1768794794330.7495,1271.7948717948716,,1,3,1768794794.3307495
1768794794338.562,1282.7838827838827,,1,3,1768794794.338562
1768794794346.3745,1301.8315018315018,,1,3,1768794794.3463745
1768794794354.187,1328.2051282051282,,1,3,1768794794.354187
1768794794361.9995,1356.043956043956,,1,3,1768794794.3619995
1768794794369.812,1378.7545787545787,,1,3,1768794794.369812
1768794794377.6245,1401.4652014652013,,1,3,1768794794.3776245
1768794794385.437,1420.5128205128203,,1,3,1768794794.385437
1768794794393.2495,1434.4322344322345,,1,3,1768794794.3932495
1768794794401.062,1443.956043956044,,1,3,1768794794.401062
1768794794408.8745,1456.4102564102564,,1,3,1768794794.4088745
1768794794416.687,1471.062271062271,,1,3,1768794794.416687
1768794794424.4995,1483.5164835164835,,1,3,1768794794.4244995
1768794794432.312,1491.5750915750914,,1,3,1768794794.432312
1768794794440.1245,1493.7728937728937,,1,3,1768794794.4401245
1768794794447.937,1491.5750915750914,,1,3,1768794794.447937
1768794794455.7495,1487.9120879120878,,1,3,1768794794.4557495
1768794794463.562,1484.2490842490845,,1,3,1768794794.463562
1768794794471.3745,1479.120879120879,,1,3,1768794794.4713745
1768794794479.187,1468.8644688644688,,1,3,1768794794.479187
1768794794486.9995,1459.3406593406592,,1,3,1768794794.4869995
1768794794494.812,1452.014652014652,,1,3,1768794794.494812
1768794794502.6245,1448.3516483516482,,1,3,1768794794.5026245
1768794794510.437,1443.2234432234432,,1,3,1768794794.510437
1768794794518.2495,1435.8974358974358,,1,3,1768794794.5182495
1768794794526.062,1429.3040293040292,,1,3,1768794794.526062
1768794794533.8745,1424.9084249084249,,1,3,1768794794.5338745
1768794794541.687,1422.7106227106226,,1,3,1768794794.541687
1768794794549.4995,1415.3846153846152,,1,3,1768794794.5494995
1768794794557.312,1406.5934065934066,,1,3,1768794794.557312
1768794794565.1245,1396.3369963369962,,1,3,1768794794.5651245
1768794794572.937,1388.278388278388,,1,3,1768794794.572937
1768794794580.7495,1377.2893772893772,,1,3,1768794794.5807495
1768794794588.562,1368.4981684981683,,1,3,1768794794.588562
1768794794596.3745,1367.7655677655678,,1,3,1768794794.5963745
1768794794604.187,1369.230769230769,,1,3,1768794794.604187
1768794794611.9995,1366.3003663003662,,1,3,1768794794.6119995
1768794794619.812,1358.241758241758,,0,-1,1768794794.619812
1768794794627.6245,1356.7765567765566,,0,-1,1768794794.6276245
1768794794635.437,1356.043956043956,,0,-1,1768794794.635437
1768794794643.2495,1353.8461538461538,,0,-1,1768794794.6432495
1768794794651.062,1355.311355311355,,0,-1,1768794794.651062
1768794794658.8745,1358.974358974359,,0,-1,1768794794.6588745
1768794794666.687,1364.8351648351647,,0,-1,1768794794.666687
1768794794674.4995,1367.7655677655678,,0,-1,1768794794.6744995
1768794794682.312,1364.8351648351647,,0,-1,1768794794.682312
1768794794690.1245,1358.241758241758,,0,-1,1768794794.6901245
1768794794697.937,1354.5787545787546,,0,-1,1768794794.697937
1768794794705.7495,1350.9157509157508,,0,-1,1768794794.7057495
1768794794713.562,1350.9157509157508,,0,-1,1768794794.713562
1768794794721.3745,1356.043956043956,,0,-1,1768794794.7213745
1768794794729.187,1358.241758241758,,0,-1,1768794794.729187
1768794794736.9995,1351.6483516483515,,0,-1,1768794794.7369995
1768794794744.812,1342.857142857143,,0,-1,1768794794.744812
1768794794752.6245,1333.3333333333333,,0,-1,1768794794.7526245
1768794794760.437,1324.5421245421244,,0,-1,1768794794.760437
1768794794768.2495,1317.216117216117,,0,-1,1768794794.7682495
1768794794776.062,1309.1575091575091,,0,-1,1768794794.776062
1768794794783.8745,1300.3663003663005,,0,-1,1768794794.7838745
1768794794791.687,1295.970695970696,,0,-1,1768794794.791687
1768794794799.4995,1293.7728937728937,,0,-1,1768794794.7994995
1768794794807.312,1291.5750915750914,,0,-1,1768794794.807312
1768794794815.1245,1289.3772893772891,,0,-1,1768794794.8151245
1768794794822.937,1287.179487179487,,0,-1,1768794794.822937
1768794794830.7495,1283.5164835164835,,0,-1,1768794794.8307495
1768794794838.562,1281.3186813186812,,0,-1,1768794794.838562
1768794794846.3745,1279.120879120879,,0,-1,1768794794.8463745
1768794794854.187,1270.3296703296703,,0,-1,1768794794.854187
1768794794861.9995,1261.5384615384614,,0,-1,1768794794.8619995
1768794794869.812,1256.4102564102564,,0,-1,1768794794.869812
1768794794877.6245,1252.7472527472526,,0,-1,1768794794.8776245
1768794794885.437,1249.084249084249,,0,-1,1768794794.885437
1768794794893.2495,1247.6190476190477,,0,-1,1768794794.8932495
1768794794901.062,1246.153846153846,,0,-1,1768794794.901062
1768794794908.8745,1249.084249084249,,0,-1,1768794794.9088745
1768794794916.687,1246.153846153846,,0,-1,1768794794.916687
1768794794924.4995,1248.3516483516482,,0,-1,1768794794.9244995
1768794794932.312,1251.2820512820513,,0,-1,1768794794.932312
1768794794940.1245,1247.6190476190477,,0,-1,1768794794.9401245
1768794794947.937,1245.4212454212454,,0,-1,1768794794.947937
1768794794955.7495,1241.7582417582416,,0,-1,1768794794.9557495
1768794794963.562,1231.5018315018317,,0,-1,1768794794.963562
1768794794971.3745,1222.7106227106226,,0,-1,1768794794.9713745
1768794794979.187,1219.7802197802198,,0,-1,1768794794.979187
1768794794986.9995,1218.3150183150185,,0,-1,1768794794.9869995
1768794794994.812,1218.3150183150185,,0,-1,1768794794.994812
1768794795002.6245,1219.7802197802198,,0,-1,1768794795.0026245
1768794795010.437,1221.245421245421,,0,-1,1768794795.010437
1768794795018.2495,1218.3150183150185,,0,-1,1768794795.0182495
1768794795026.062,1216.8498168498168,,0,-1,1768794795.026062
1768794795033.8745,1216.117216117216,,0,-1,1768794795.0338745
1768794795041.687,1214.6520146520145,,0,-1,1768794795.041687
1768794795049.4995,1211.7216117216117,,0,-1,1768794795.0494995
1768794795057.312,1208.058608058608,,0,-1,1768794795.057312
1768794795065.1245,1202.9304029304028,,0,-1,1768794795.0651245
1768794795072.937,1198.5347985347985,,0,-1,1768794795.072937
1768794795080.7495,1197.069597069597,,0,-1,1768794795.0807495
1768794795088.562,1191.2087912087911,,0,-1,1768794795.088562
1768794795096.3745,1185.3479853479853,,0,-1,1768794795.0963745
1768794795104.187,1180.952380952381,,0,-1,1768794795.104187
1768794795111.9995,1178.7545787545787,,0,-1,1768794795.1119995
1768794795119.812,1172.161172161172,,0,-1,1768794795.119812
1768794795127.6245,1167.032967032967,,0,-1,1768794795.1276245
1768794795135.437,1166.3003663003662,,0,-1,1768794795.135437
1768794795143.2495,1167.7655677655678,,0,-1,1768794795.1432495
1768794795151.062,1166.3003663003662,,0,-1,1768794795.151062
1768794795158.8745,1160.4395604395604,,0,-1,1768794795.1588745
1768794795166.687,1158.974358974359,,0,-1,1768794795.166687
1768794795174.4995,1163.3699633699632,,0,-1,1768794795.1744995
1768794795182.312,1175.0915750915751,,0,-1,1768794795.182312
1768794795190.1245,1194.8717948717947,,0,-1,1768794795.1901245
1768794795197.937,1212.4542124542124,,0,-1,1768794795.197937
1768794795205.7495,1230.7692307692307,,0,-1,1768794795.2057495
1768794795213.562,1245.4212454212454,,0,-1,1768794795.213562
1768794795221.3745,1254.212454212454,,0,-1,1768794795.2213745
1768794795229.187,1271.062271062271,,0,-1,1768794795.229187
1768794795236.9995,1283.5164835164835,,0,-1,1768794795.2369995
1768794795244.812,1298.9010989010987,,0,-1,1768794795.244812
1768794795252.6245,1314.2857142857142,,0,-1,1768794795.2526245
1768794795260.437,1325.2747252747251,,0,-1,1768794795.260437
1768794795268.2495,1336.9963369963368,,0,-1,1768794795.2682495
1768794795276.062,1345.054945054945,,0,-1,1768794795.276062
1768794795283.8745,1353.113553113553,,0,-1,1768794795.2838745
1768794795291.687,1362.6373626373625,,0,-1,1768794795.291687
1768794795299.4995,1366.3003663003662,,0,-1,1768794795.2994995
1768794795307.312,1369.9633699633698,,0,-1,1768794795.307312
1768794795315.1245,1368.4981684981683,,0,-1,1768794795.3151245
1768794795322.937,1366.3003663003662,,0,-1,1768794795.322937
1768794795330.7495,1360.4395604395604,,0,-1,1768794795.3307495
1768794795338.562,1350.18315018315,,0,-1,1768794795.338562
1768794795346.3745,1340.6593406593406,,0,-1,1768794795.3463745
1768794795354.187,1326.739926739927,,0,-1,1768794795.354187
1768794795361.9995,1322.3443223443223,,0,-1,1768794795.3619995
1768794795369.812,1317.216117216117,,0,-1,1768794795.369812
1768794795377.6245,1317.9487179487178,,0,-1,1768794795.3776245
1768794795385.437,1317.9487179487178,,0,-1,1768794795.385437
1768794795393.2495,1321.6117216117216,,0,-1,1768794795.3932495
1768794795401.062,1328.2051282051282,,0,-1,1768794795.401062
1768794795408.8745,1334.7985347985348,,0,-1,1768794795.4088745
1768794795416.687,1341.3919413919414,,0,-1,1768794795.416687
1768794795424.4995,1344.3223443223442,,0,-1,1768794795.4244995
1768794795432.312,1340.6593406593406,,0,-1,1768794795.432312
1768794795440.1245,1338.4615384615383,,0,-1,1768794795.4401245
1768794795447.937,1330.4029304029302,,0,-1,1768794795.447937
1768794795455.7495,1323.8095238095236,,0,-1,1768794795.4557495
1768794795463.562,1313.5531135531137,,0,-1,1768794795.463562
1768794795471.3745,1311.3553113553112,,0,-1,1768794795.4713745
1768794795479.187,1304.7619047619046,,0,-1,1768794795.479187
1768794795486.9995,1299.6336996336995,,0,-1,1768794795.4869995
1768794795494.812,1292.3076923076922,,0,-1,1768794795.494812
1768794795502.6245,1287.9120879120878,,0,-1,1768794795.5026245
1768794795510.437,1285.7142857142856,,0,-1,1768794795.510437
1768794795518.2495,1282.7838827838827,,0,-1,1768794795.5182495
1768794795526.062,1284.2490842490845,,0,-1,1768794795.526062
1768794795533.8745,1280.5860805860805,,0,-1,1768794795.5338745
1768794795541.687,1279.120879120879,,0,-1,1768794795.541687
1768794795549.4995,1274.7252747252746,,0,-1,1768794795.5494995
1768794795557.312,1271.7948717948716,,0,-1,1768794795.557312
1768794795565.1245,1276.190476190476,,0,-1,1768794795.5651245
1768794795572.937,1276.923076923077,,0,-1,1768794795.572937
1768794795580.7495,1279.8534798534797,,0,-1,1768794795.5807495
1768794795588.562,1283.5164835164835,,0,-1,1768794795.588562
1768794795596.3745,1283.5164835164835,,0,-1,1768794795.5963745
1768794795604.187,1290.8424908424909,,0,-1,1768794795.604187
1768794795611.9995,1301.8315018315018,,0,-1,1768794795.6119995
