Shimmer_6815_Timestamp_Unix_CAL,Shimmer_6815_PPG_A13_CAL,Unnamed: 2,inhale,inhale_id,epoch_sec
1768944815235.0464,17.58241758241758,,0,-1,1768944815.2350464
1768944815242.859,102.56410256410255,,0,-1,1768944815.242859
1768944815250.6714,221.24542124542123,,0,-1,1768944815.2506714
1768944815258.484,354.57875457875457,,0,-1,1768944815.258484
1768944815266.2964,486.4468864468864,,0,-1,1768944815.2662964
1768944815274.109,611.7216117216117,,0,-1,1768944815.274109
1768944815281.9214,732.6007326007325,,0,-1,1768944815.2819214
1768944815289.734,841.025641025641,,0,-1,1768944815.289734
1768944815297.5464,938.4615384615385,,0,-1,1768944815.2975464
1768944815305.359,1020.5128205128204,,0,-1,1768944815.305359
1768944815313.1714,1092.3076923076922,,0,-1,1768944815.3131714
1768944815320.984,1148.7179487179487,,0,-1,1768944815.320984
1768944815328.7964,1195.6043956043954,,0,-1,1768944815.3287964
1768944815336.609,1225.6410256410256,,0,-1,1768944815.336609
1768944815344.4214,1252.014652014652,,0,-1,1768944815.3444214
1768944815352.234,1268.8644688644688,,0,-1,1768944815.352234
1768944815360.0464,1282.051282051282,,0,-1,1768944815.3600464
1768944815367.859,1286.4468864468863,,0,-1,1768944815.367859
1768944815375.6714,1290.8424908424909,,0,-1,1768944815.3756714
1768944815383.484,1287.179487179487,,0,-1,1768944815.383484
1768944815391.2964,1287.9120879120878,,0,-1,1768944815.3912964
1768944815399.109,1282.7838827838827,,0,-1,1768944815.399109
1768944815406.9214,1280.5860805860805,,0,-1,1768944815.4069214
1768944815414.734,1276.923076923077,,0,-1,1768944815.414734
1768944815422.5464,1273.992673992674,,0,-1,1768944815.4225464
1768944815430.359,1266.6666666666663,,0,-1,1768944815.430359
1768944815438.1714,1262.2710622710622,,0,-1,1768944815.4381714
1768944815445.984,1253.479853479853,,0,-1,1768944815.445984
1768944815453.7964,1245.4212454212454,,0,-1,1768944815.4537964
1768944815461.609,1238.8278388278388,,0,-1,1768944815.461609
1768944815469.4214,1233.6996336996335,,0,-1,1768944815.4694214
1768944815477.234,1225.6410256410256,,0,-1,1768944815.477234
1768944815485.0464,1214.6520146520145,,0,-1,1768944815.4850464
1768944815492.859,1206.5934065934066,,0,-1,1768944815.492859
1768944815500.6714,1200.0,,0,-1,1768944815.5006714
1768944815508.484,1200.7326007326008,,0,-1,1768944815.508484
1768944815516.2964,1204.3956043956043,,0,-1,1768944815.5162964
1768944815524.109,1208.058608058608,,0,-1,1768944815.524109
1768944815531.9214,1217.5824175824175,,0,-1,1768944815.5319214
1768944815539.734,1221.245421245421,,0,-1,1768944815.539734
1768944815547.5464,1229.3040293040292,,0,-1,1768944815.5475464
1768944815555.359,1232.967032967033,,0,-1,1768944815.555359
1768944815563.1714,1235.8974358974358,,0,-1,1768944815.5631714
1768944815570.984,1241.7582417582416,,0,-1,1768944815.570984
1768944815578.7964,1249.084249084249,,0,-1,1768944815.5787964
1768944815586.609,1251.2820512820513,,0,-1,1768944815.586609
1768944815594.4214,1255.6776556776556,,0,-1,1768944815.5944214
1768944815602.234,1254.9450549450548,,0,-1,1768944815.602234
1768944815610.0464,1255.6776556776556,,0,-1,1768944815.6100464
1768944815617.859,1255.6776556776556,,0,-1,1768944815.617859
1768944815625.6714,1252.7472527472526,,0,-1,1768944815.6256714
1768944815633.484,1248.3516483516482,,0,-1,1768944815.633484
1768944815641.2964,1248.3516483516482,,0,-1,1768944815.6412964
1768944815649.109,1249.084249084249,,0,-1,1768944815.649109
1768944815656.9214,1246.8864468864467,,0,-1,1768944815.6569214
1768944815664.734,1249.084249084249,,0,-1,1768944815.664734
1768944815672.5464,1253.479853479853,,0,-1,1768944815.6725464
1768944815680.359,1254.212454212454,,0,-1,1768944815.680359
1768944815688.1714,1251.2820512820513,,0,-1,1768944815.6881714
1768944815695.984,1252.014652014652,,0,-1,1768944815.695984
1768944815703.7964,1257.875457875458,,0,-1,1768944815.7037964
1768944815711.609,1263.003663003663,,0,-1,1768944815.711609
1768944815719.4214,1265.9340659340658,,0,-1,1768944815.7194214
1768944815727.234,1269.5970695970695,,0,-1,1768944815.727234
1768944815735.0464,1270.3296703296703,,0,-1,1768944815.7350464
1768944815742.859,1268.131868131868,,0,-1,1768944815.742859
1768944815750.6714,1271.7948717948716,,0,-1,1768944815.7506714
1768944815758.484,1276.190476190476,,0,-1,1768944815.758484
1768944815766.2964,1278.3882783882782,,0,-1,1768944815.7662964
1768944815774.109,1279.120879120879,,0,-1,1768944815.774109
1768944815781.9214,1279.8534798534797,,0,-1,1768944815.7819214
1768944815789.734,1278.3882783882782,,0,-1,1768944815.789734
1768944815797.5464,1274.7252747252746,,0,-1,1768944815.7975464
1768944815805.359,1275.4578754578754,,0,-1,1768944815.805359
1768944815813.1714,1271.062271062271,,0,-1,1768944815.8131714
1768944815820.984,1269.5970695970695,,0,-1,1768944815.820984
1768944815828.7964,1269.5970695970695,,0,-1,1768944815.8287964
1768944815836.609,1268.131868131868,,0,-1,1768944815.836609
1768944815844.4214,1271.7948717948716,,0,-1,1768944815.8444214
1768944815852.234,1276.923076923077,,0,-1,1768944815.852234
1768944815860.0464,1281.3186813186812,,0,-1,1768944815.8600464
1768944815867.859,1290.8424908424909,,0,-1,1768944815.867859
1768944815875.6714,1294.5054945054944,,0,-1,1768944815.8756714
1768944815883.484,1301.098901098901,,0,-1,1768944815.883484
1768944815891.2964,1304.7619047619046,,0,-1,1768944815.8912964
1768944815899.109,1308.4249084249084,,0,-1,1768944815.899109
1768944815906.9214,1312.8205128205127,,0,-1,1768944815.9069214
1768944815914.734,1309.89010989011,,0,-1,1768944815.914734
1768944815922.5464,1307.6923076923076,,0,-1,1768944815.9225464
1768944815930.359,1309.89010989011,,0,-1,1768944815.930359
1768944815938.1714,1312.087912087912,,0,-1,1768944815.9381714
1768944815945.984,1309.1575091575091,,0,-1,1768944815.945984
1768944815953.7964,1309.1575091575091,,0,-1,1768944815.9537964
1768944815961.609,1304.7619047619046,,0,-1,1768944815.961609
1768944815969.4214,1301.8315018315018,,0,-1,1768944815.9694214
1768944815977.234,1301.098901098901,,0,-1,1768944815.977234
1768944815985.0464,1301.8315018315018,,0,-1,1768944815.9850464
1768944815992.859,1301.8315018315018,,1,0,1768944815.992859
1768944816000.6714,1303.2967032967033,,1,0,1768944816.0006714
1768944816008.484,1304.0293040293038,,1,0,1768944816.008484
1768944816016.2964,1305.4945054945051,,1,0,1768944816.0162964
1768944816024.109,1307.6923076923076,,1,0,1768944816.024109
1768944816031.9214,1304.7619047619046,,1,0,1768944816.0319214
1768944816039.734,1304.7619047619046,,1,0,1768944816.039734
1768944816047.5464,1299.6336996336995,,1,0,1768944816.0475464
1768944816055.359,1288.6446886446886,,1,0,1768944816.055359
1768944816063.1714,1276.923076923077,,1,0,1768944816.0631714
1768944816070.984,1269.5970695970695,,1,0,1768944816.070984
1768944816078.7964,1271.062271062271,,1,0,1768944816.0787964
1768944816086.609,1272.5274725274724,,1,0,1768944816.086609
1768944816094.4214,1276.923076923077,,1,0,1768944816.0944214
1768944816102.234,1283.5164835164835,,1,0,1768944816.102234
1768944816110.0464,1285.7142857142856,,1,0,1768944816.1100464
1768944816117.859,1289.3772893772891,,1,0,1768944816.117859
1768944816125.6714,1295.970695970696,,1,0,1768944816.1256714
1768944816133.484,1301.8315018315018,,1,0,1768944816.133484
1768944816141.2964,1304.0293040293038,,1,0,1768944816.1412964
1768944816149.109,1309.89010989011,,1,0,1768944816.149109
1768944816156.9214,1314.2857142857142,,1,0,1768944816.1569214
1768944816164.734,1317.216117216117,,1,0,1768944816.164734
1768944816172.5464,1320.14652014652,,1,0,1768944816.1725464
1768944816180.359,1322.3443223443223,,1,0,1768944816.180359
1768944816188.1714,1323.076923076923,,1,0,1768944816.1881714
1768944816195.984,1318.6813186813183,,1,0,1768944816.195984
1768944816203.7964,1315.018315018315,,1,0,1768944816.2037964
1768944816211.609,1309.1575091575091,,1,0,1768944816.211609
1768944816219.4214,1304.0293040293038,,1,0,1768944816.2194214
1768944816227.234,1300.3663003663005,,1,0,1768944816.227234
1768944816235.0464,1304.0293040293038,,1,0,1768944816.2350464
1768944816242.859,1310.6227106227104,,1,0,1768944816.242859
1768944816250.6714,1313.5531135531137,,1,0,1768944816.2506714
1768944816258.484,1316.4835164835165,,1,0,1768944816.258484
1768944816266.2964,1319.4139194139193,,1,0,1768944816.2662964
1768944816274.109,1325.2747252747251,,1,0,1768944816.274109
1768944816281.9214,1326.739926739927,,1,0,1768944816.2819214
1768944816289.734,1327.4725274725274,,1,0,1768944816.289734
1768944816297.5464,1328.2051282051282,,1,0,1768944816.2975464
1768944816305.359,1327.4725274725274,,1,0,1768944816.305359
1768944816313.1714,1323.8095238095236,,1,0,1768944816.3131714
1768944816320.984,1315.7509157509155,,1,0,1768944816.320984
1768944816328.7964,1309.89010989011,,1,0,1768944816.3287964
1768944816336.609,1298.9010989010987,,1,0,1768944816.336609
1768944816344.4214,1294.5054945054944,,1,0,1768944816.3444214
1768944816352.234,1290.8424908424909,,1,0,1768944816.352234
1768944816360.0464,1291.5750915750914,,1,0,1768944816.3600464
1768944816367.859,1294.5054945054944,,1,0,1768944816.367859
1768944816375.6714,1293.040293040293,,1,0,1768944816.3756714
1768944816383.484,1289.3772893772891,,1,0,1768944816.383484
1768944816391.2964,1286.4468864468863,,1,0,1768944816.3912964
1768944816399.109,1279.120879120879,,1,0,1768944816.399109
1768944816406.9214,1279.120879120879,,1,0,1768944816.4069214
1768944816414.734,1277.6556776556777,,1,0,1768944816.414734
1768944816422.5464,1283.5164835164835,,1,0,1768944816.4225464
1768944816430.359,1295.2380952380952,,1,0,1768944816.430359
1768944816438.1714,1306.9597069597069,,1,0,1768944816.4381714
1768944816445.984,1316.4835164835165,,1,0,1768944816.445984
1768944816453.7964,1324.5421245421244,,1,0,1768944816.4537964
1768944816461.609,1334.065934065934,,1,0,1768944816.461609
1768944816469.4214,1339.92673992674,,1,0,1768944816.4694214
1768944816477.234,1343.5897435897434,,1,0,1768944816.477234
1768944816485.0464,1348.7179487179487,,1,0,1768944816.4850464
1768944816492.859,1354.5787545787546,,1,0,1768944816.492859
1768944816500.6714,1355.311355311355,,1,0,1768944816.5006714
1768944816508.484,1353.8461538461538,,1,0,1768944816.508484
1768944816516.2964,1353.113553113553,,1,0,1768944816.5162964
1768944816524.109,1354.5787545787546,,1,0,1768944816.524109
1768944816531.9214,1357.5091575091574,,1,0,1768944816.5319214
1768944816539.734,1356.7765567765566,,1,0,1768944816.539734
1768944816547.5464,1350.18315018315,,1,0,1768944816.5475464
1768944816555.359,1344.3223443223442,,1,0,1768944816.555359
1768944816563.1714,1339.194139194139,,1,0,1768944816.5631714
1768944816570.984,1339.194139194139,,1,0,1768944816.570984
1768944816578.7964,1341.3919413919414,,1,0,1768944816.5787964
1768944816586.609,1342.124542124542,,1,0,1768944816.586609
1768944816594.4214,1345.054945054945,,1,0,1768944816.5944214
1768944816602.234,1351.6483516483515,,1,0,1768944816.602234
1768944816610.0464,1352.3809523809523,,1,0,1768944816.6100464
1768944816617.859,1354.5787545787546,,1,0,1768944816.617859
1768944816625.6714,1350.18315018315,,1,0,1768944816.6256714
1768944816633.484,1346.5201465201465,,1,0,1768944816.633484
1768944816641.2964,1343.5897435897434,,1,0,1768944816.6412964
1768944816649.109,1338.4615384615383,,1,0,1768944816.649109
1768944816656.9214,1337.7289377289376,,1,0,1768944816.6569214
1768944816664.734,1334.7985347985348,,1,0,1768944816.664734
1768944816672.5464,1331.135531135531,,1,0,1768944816.6725464
1768944816680.359,1331.135531135531,,1,0,1768944816.680359
1768944816688.1714,1331.135531135531,,1,0,1768944816.6881714
1768944816695.984,1327.4725274725274,,1,0,1768944816.695984
1768944816703.7964,1326.739926739927,,1,0,1768944816.7037964
1768944816711.609,1328.937728937729,,1,0,1768944816.711609
1768944816719.4214,1332.6007326007325,,1,0,1768944816.7194214
1768944816727.234,1335.5311355311355,,1,0,1768944816.727234
1768944816735.0464,1336.9963369963368,,1,0,1768944816.7350464
1768944816742.859,1334.065934065934,,1,0,1768944816.742859
1768944816750.6714,1329.6703296703297,,1,0,1768944816.7506714
1768944816758.484,1327.4725274725274,,1,0,1768944816.758484
1768944816766.2964,1326.007326007326,,1,0,1768944816.7662964
1768944816774.109,1325.2747252747251,,1,0,1768944816.774109
1768944816781.9214,1327.4725274725274,,1,0,1768944816.7819214
1768944816789.734,1331.135531135531,,1,0,1768944816.789734
1768944816797.5464,1334.7985347985348,,1,0,1768944816.7975464
1768944816805.359,1336.9963369963368,,1,0,1768944816.805359
1768944816813.1714,1338.4615384615383,,1,0,1768944816.8131714
1768944816820.984,1337.7289377289376,,1,0,1768944816.820984
1768944816828.7964,1336.9963369963368,,1,0,1768944816.8287964
1768944816836.609,1334.7985347985348,,1,0,1768944816.836609
1768944816844.4214,1330.4029304029302,,1,0,1768944816.8444214
1768944816852.234,1321.6117216117216,,1,0,1768944816.852234
1768944816860.0464,1315.7509157509155,,1,0,1768944816.8600464
1768944816867.859,1314.2857142857142,,1,0,1768944816.867859
1768944816875.6714,1312.087912087912,,1,0,1768944816.8756714
1768944816883.484,1308.4249084249084,,1,0,1768944816.883484
1768944816891.2964,1306.227106227106,,1,0,1768944816.8912964
1768944816899.109,1306.227106227106,,1,0,1768944816.899109
1768944816906.9214,1303.2967032967033,,1,0,1768944816.9069214
1768944816914.734,1301.098901098901,,1,0,1768944816.914734
1768944816922.5464,1303.2967032967033,,1,0,1768944816.9225464
1768944816930.359,1307.6923076923076,,1,0,1768944816.930359
1768944816938.1714,1309.89010989011,,1,0,1768944816.9381714
1768944816945.984,1312.087912087912,,1,0,1768944816.945984
1768944816953.7964,1315.018315018315,,1,0,1768944816.9537964
1768944816961.609,1317.216117216117,,1,0,1768944816.961609
1768944816969.4214,1318.6813186813183,,1,0,1768944816.9694214
1768944816977.234,1321.6117216117216,,1,0,1768944816.977234
1768944816985.0464,1320.14652014652,,1,0,1768944816.9850464
1768944816992.859,1317.9487179487178,,1,0,1768944816.992859
1768944817000.6714,1317.216117216117,,1,0,1768944817.0006714
1768944817008.484,1313.5531135531137,,1,0,1768944817.008484
1768944817016.2964,1312.087912087912,,1,0,1768944817.0162964
1768944817024.109,1315.7509157509155,,1,0,1768944817.024109
1768944817031.9214,1323.8095238095236,,1,0,1768944817.0319214
1768944817039.734,1331.135531135531,,1,0,1768944817.039734
1768944817047.5464,1339.92673992674,,1,0,1768944817.0475464
1768944817055.359,1346.5201465201465,,1,0,1768944817.055359
1768944817063.1714,1350.9157509157508,,1,0,1768944817.0631714
1768944817070.984,1361.1721611721612,,1,0,1768944817.070984
1768944817078.7964,1372.8937728937728,,1,0,1768944817.0787964
1768944817086.609,1383.8827838827838,,1,0,1768944817.086609
1768944817094.4214,1389.0109890109889,,1,0,1768944817.0944214
1768944817102.234,1394.139194139194,,1,0,1768944817.102234
1768944817110.0464,1392.6739926739926,,1,0,1768944817.1100464
1768944817117.859,1391.2087912087911,,1,0,1768944817.117859
1768944817125.6714,1392.6739926739926,,1,0,1768944817.1256714
1768944817133.484,1395.6043956043954,,1,0,1768944817.133484
1768944817141.2964,1397.069597069597,,1,0,1768944817.1412964
1768944817149.109,1397.069597069597,,1,0,1768944817.149109
1768944817156.9214,1396.3369963369962,,1,0,1768944817.1569214
1768944817164.734,1394.8717948717947,,1,0,1768944817.164734
1768944817172.5464,1392.6739926739926,,1,0,1768944817.1725464
1768944817180.359,1387.5457875457876,,1,0,1768944817.180359
1768944817188.1714,1384.6153846153843,,1,0,1768944817.1881714
1768944817195.984,1381.6849816849815,,1,0,1768944817.195984
1768944817203.7964,1375.8241758241757,,1,0,1768944817.2037964
1768944817211.609,1369.230769230769,,1,0,1768944817.211609
1768944817219.4214,1357.5091575091574,,1,0,1768944817.2194214
1768944817227.234,1347.985347985348,,1,0,1768944817.227234
1768944817235.0464,1340.6593406593406,,1,0,1768944817.2350464
1768944817242.859,1333.3333333333333,,1,0,1768944817.242859
1768944817250.6714,1330.4029304029302,,1,0,1768944817.2506714
1768944817258.484,1331.8681318681315,,1,0,1768944817.258484
1768944817266.2964,1333.3333333333333,,1,0,1768944817.2662964
1768944817274.109,1332.6007326007325,,1,0,1768944817.274109
1768944817281.9214,1329.6703296703297,,1,0,1768944817.2819214
1768944817289.734,1325.2747252747251,,1,0,1768944817.289734
1768944817297.5464,1321.6117216117216,,1,0,1768944817.2975464
1768944817305.359,1320.14652014652,,1,0,1768944817.305359
1768944817313.1714,1323.076923076923,,1,0,1768944817.3131714
1768944817320.984,1326.007326007326,,1,0,1768944817.320984
1768944817328.7964,1332.6007326007325,,1,0,1768944817.3287964
1768944817336.609,1336.9963369963368,,1,0,1768944817.336609
1768944817344.4214,1342.124542124542,,1,0,1768944817.3444214
1768944817352.234,1346.5201465201465,,1,0,1768944817.352234
1768944817360.0464,1345.7875457875457,,1,0,1768944817.3600464
1768944817367.859,1340.6593406593406,,1,0,1768944817.367859
1768944817375.6714,1336.9963369963368,,1,0,1768944817.3756714
1768944817383.484,1336.9963369963368,,1,0,1768944817.383484
1768944817391.2964,1340.6593406593406,,1,0,1768944817.3912964
1768944817399.109,1346.5201465201465,,1,0,1768944817.399109
1768944817406.9214,1347.985347985348,,1,0,1768944817.4069214
1768944817414.734,1347.985347985348,,1,0,1768944817.414734
1768944817422.5464,1347.985347985348,,1,0,1768944817.4225464
1768944817430.359,1349.4505494505493,,1,0,1768944817.430359
1768944817438.1714,1350.18315018315,,1,0,1768944817.4381714
1768944817445.984,1348.7179487179487,,1,0,1768944817.445984
1768944817453.7964,1346.5201465201465,,1,0,1768944817.4537964
1768944817461.609,1345.054945054945,,1,0,1768944817.461609
1768944817469.4214,1344.3223443223442,,1,0,1768944817.4694214
1768944817477.234,1344.3223443223442,,1,0,1768944817.477234
1768944817485.0464,1343.5897435897434,,1,0,1768944817.4850464
1768944817492.859,1341.3919413919414,,1,0,1768944817.492859
1768944817500.6714,1339.194139194139,,1,0,1768944817.5006714
1768944817508.484,1336.263736263736,,1,0,1768944817.508484
1768944817516.2964,1333.3333333333333,,1,0,1768944817.5162964
1768944817524.109,1330.4029304029302,,1,0,1768944817.524109
1768944817531.9214,1328.2051282051282,,1,0,1768944817.5319214
1768944817539.734,1331.8681318681315,,1,0,1768944817.539734
1768944817547.5464,1337.7289377289376,,1,0,1768944817.5475464
1768944817555.359,1344.3223443223442,,1,0,1768944817.555359
1768944817563.1714,1353.113553113553,,1,0,1768944817.5631714
1768944817570.984,1360.4395604395604,,1,0,1768944817.570984
1768944817578.7964,1367.7655677655678,,1,0,1768944817.5787964
1768944817586.609,1378.021978021978,,1,0,1768944817.586609
1768944817594.4214,1383.8827838827838,,1,0,1768944817.5944214
1768944817602.234,1392.6739926739926,,1,0,1768944817.602234
1768944817610.0464,1405.128205128205,,1,0,1768944817.6100464
1768944817617.859,1416.117216117216,,1,0,1768944817.617859
1768944817625.6714,1426.3736263736262,,1,0,1768944817.6256714
1768944817633.484,1435.164835164835,,1,0,1768944817.633484
1768944817641.2964,1440.29304029304,,1,0,1768944817.6412964
1768944817649.109,1442.4908424908424,,1,0,1768944817.649109
1768944817656.9214,1444.688644688645,,1,0,1768944817.6569214
1768944817664.734,1443.2234432234432,,1,0,1768944817.664734
1768944817672.5464,1440.29304029304,,1,0,1768944817.6725464
1768944817680.359,1435.164835164835,,1,0,1768944817.680359
1768944817688.1714,1430.7692307692307,,1,0,1768944817.6881714
1768944817695.984,1424.9084249084249,,1,0,1768944817.695984
1768944817703.7964,1419.047619047619,,1,0,1768944817.7037964
1768944817711.609,1415.3846153846152,,1,0,1768944817.711609
1768944817719.4214,1412.4542124542124,,1,0,1768944817.7194214
1768944817727.234,1412.4542124542124,,1,0,1768944817.727234
1768944817735.0464,1412.4542124542124,,1,0,1768944817.7350464
1768944817742.859,1410.2564102564102,,1,0,1768944817.742859
1768944817750.6714,1403.6630036630036,,1,0,1768944817.7506714
1768944817758.484,1395.6043956043954,,1,0,1768944817.758484
1768944817766.2964,1387.5457875457876,,1,0,1768944817.7662964
1768944817774.109,1380.952380952381,,1,0,1768944817.774109
1768944817781.9214,1374.3589743589744,,1,0,1768944817.7819214
1768944817789.734,1369.230769230769,,1,0,1768944817.789734
1768944817797.5464,1366.3003663003662,,1,0,1768944817.7975464
1768944817805.359,1367.032967032967,,1,0,1768944817.805359
1768944817813.1714,1368.4981684981683,,1,0,1768944817.8131714
1768944817820.984,1365.5677655677655,,1,0,1768944817.820984
1768944817828.7964,1363.3699633699632,,1,0,1768944817.8287964
1768944817836.609,1363.3699633699632,,1,0,1768944817.836609
1768944817844.4214,1361.1721611721612,,1,0,1768944817.8444214
1768944817852.234,1358.241758241758,,1,0,1768944817.852234
1768944817860.0464,1358.241758241758,,1,0,1768944817.8600464
1768944817867.859,1356.043956043956,,1,0,1768944817.867859
1768944817875.6714,1359.7069597069597,,1,0,1768944817.8756714
1768944817883.484,1369.230769230769,,1,0,1768944817.883484
1768944817891.2964,1380.2197802197802,,1,0,1768944817.8912964
1768944817899.109,1388.278388278388,,1,0,1768944817.899109
1768944817906.9214,1391.2087912087911,,1,0,1768944817.9069214
1768944817914.734,1394.139194139194,,1,0,1768944817.914734
1768944817922.5464,1394.8717948717947,,1,0,1768944817.9225464
1768944817930.359,1394.8717948717947,,1,0,1768944817.930359
1768944817938.1714,1394.8717948717947,,1,0,1768944817.9381714
1768944817945.984,1393.4065934065934,,1,0,1768944817.945984
1768944817953.7964,1391.2087912087911,,1,0,1768944817.9537964
1768944817961.609,1386.080586080586,,1,0,1768944817.961609
1768944817969.4214,1381.6849816849815,,1,0,1768944817.9694214
1768944817977.234,1377.2893772893772,,1,0,1768944817.977234
1768944817985.0464,1371.428571428571,,1,0,1768944817.9850464
1768944817992.859,1364.8351648351647,,1,0,1768944817.992859
1768944818000.6714,1358.974358974359,,1,0,1768944818.0006714
1768944818008.484,1361.1721611721612,,1,0,1768944818.008484
1768944818016.2964,1363.3699633699632,,1,0,1768944818.0162964
1768944818024.109,1364.8351648351647,,1,0,1768944818.024109
1768944818031.9214,1369.230769230769,,1,0,1768944818.0319214
1768944818039.734,1372.161172161172,,1,0,1768944818.039734
1768944818047.5464,1372.161172161172,,1,0,1768944818.0475464
1768944818055.359,1373.6263736263736,,1,0,1768944818.055359
1768944818063.1714,1375.8241758241757,,1,0,1768944818.0631714
1768944818070.984,1380.952380952381,,1,0,1768944818.070984
1768944818078.7964,1383.150183150183,,1,0,1768944818.0787964
1768944818086.609,1383.8827838827838,,1,0,1768944818.086609
1768944818094.4214,1384.6153846153843,,1,0,1768944818.0944214
1768944818102.234,1385.3479853479853,,1,0,1768944818.102234
1768944818110.0464,1388.278388278388,,1,0,1768944818.1100464
1768944818117.859,1395.6043956043954,,1,0,1768944818.117859
1768944818125.6714,1404.3956043956043,,1,0,1768944818.1256714
1768944818133.484,1413.1868131868132,,1,0,1768944818.133484
1768944818141.2964,1421.245421245421,,1,0,1768944818.1412964
1768944818149.109,1427.106227106227,,1,0,1768944818.149109
1768944818156.9214,1433.6996336996335,,1,0,1768944818.1569214
1768944818164.734,1443.956043956044,,1,0,1768944818.164734
1768944818172.5464,1456.4102564102564,,1,0,1768944818.1725464
1768944818180.359,1464.4688644688645,,1,0,1768944818.180359
1768944818188.1714,1470.3296703296703,,1,0,1768944818.1881714
1768944818195.984,1476.190476190476,,1,0,1768944818.195984
1768944818203.7964,1479.120879120879,,1,0,1768944818.2037964
1768944818211.609,1479.120879120879,,1,0,1768944818.211609
1768944818219.4214,1481.3186813186812,,1,0,1768944818.2194214
1768944818227.234,1481.3186813186812,,1,0,1768944818.227234
1768944818235.0464,1475.4578754578754,,1,0,1768944818.2350464
1768944818242.859,1472.5274725274724,,1,0,1768944818.242859
1768944818250.6714,1464.4688644688645,,1,0,1768944818.2506714
1768944818258.484,1460.07326007326,,1,0,1768944818.258484
1768944818266.2964,1454.9450549450548,,1,0,1768944818.2662964
1768944818274.109,1452.014652014652,,1,0,1768944818.274109
1768944818281.9214,1446.153846153846,,1,0,1768944818.2819214
1768944818289.734,1441.7582417582416,,1,0,1768944818.289734
1768944818297.5464,1438.8278388278388,,1,0,1768944818.2975464
1768944818305.359,1438.095238095238,,1,0,1768944818.305359
1768944818313.1714,1438.095238095238,,1,0,1768944818.3131714
1768944818320.984,1431.5018315018317,,1,0,1768944818.320984
1768944818328.7964,1424.175824175824,,1,0,1768944818.3287964
1768944818336.609,1413.9194139194135,,1,0,1768944818.336609
1768944818344.4214,1402.9304029304028,,1,0,1768944818.3444214
1768944818352.234,1394.8717948717947,,1,0,1768944818.352234
1768944818360.0464,1387.5457875457876,,1,0,1768944818.3600464
1768944818367.859,1383.150183150183,,1,0,1768944818.367859
1768944818375.6714,1382.4175824175825,,1,0,1768944818.3756714
1768944818383.484,1376.5567765567764,,1,0,1768944818.383484
1768944818391.2964,1372.8937728937728,,1,0,1768944818.3912964
1768944818399.109,1374.3589743589744,,1,0,1768944818.399109
1768944818406.9214,1375.091575091575,,1,0,1768944818.4069214
1768944818414.734,1380.2197802197802,,1,0,1768944818.414734
1768944818422.5464,1389.0109890109889,,1,0,1768944818.4225464
1768944818430.359,1397.069597069597,,1,0,1768944818.430359
1768944818438.1714,1399.2673992673992,,1,0,1768944818.4381714
1768944818445.984,1397.8021978021975,,1,0,1768944818.445984
1768944818453.7964,1397.069597069597,,1,0,1768944818.4537964
1768944818461.609,1393.4065934065934,,1,0,1768944818.461609
1768944818469.4214,1387.5457875457876,,1,0,1768944818.4694214
1768944818477.234,1380.952380952381,,1,0,1768944818.477234
1768944818485.0464,1377.2893772893772,,1,0,1768944818.4850464
1768944818492.859,1372.8937728937728,,1,0,1768944818.492859
1768944818500.6714,1365.5677655677655,,1,0,1768944818.5006714
1768944818508.484,1364.8351648351647,,1,0,1768944818.508484
1768944818516.2964,1366.3003663003662,,1,0,1768944818.5162964
1768944818524.109,1367.7655677655678,,1,0,1768944818.524109
1768944818531.9214,1369.9633699633698,,1,0,1768944818.5319214
1768944818539.734,1372.161172161172,,1,0,1768944818.539734
1768944818547.5464,1376.5567765567764,,1,0,1768944818.5475464
1768944818555.359,1380.2197802197802,,1,0,1768944818.555359
1768944818563.1714,1379.4871794871794,,1,0,1768944818.5631714
1768944818570.984,1378.7545787545787,,1,0,1768944818.570984
1768944818578.7964,1379.4871794871794,,1,0,1768944818.5787964
1768944818586.609,1383.150183150183,,1,0,1768944818.586609
1768944818594.4214,1383.8827838827838,,1,0,1768944818.5944214
1768944818602.234,1387.5457875457876,,1,0,1768944818.602234
1768944818610.0464,1393.4065934065934,,1,0,1768944818.6100464
1768944818617.859,1394.139194139194,,1,0,1768944818.617859
1768944818625.6714,1397.8021978021975,,1,0,1768944818.6256714
1768944818633.484,1403.6630036630036,,1,0,1768944818.633484
1768944818641.2964,1406.5934065934066,,1,0,1768944818.6412964
1768944818649.109,1414.6520146520145,,1,0,1768944818.649109
1768944818656.9214,1429.3040293040292,,1,0,1768944818.6569214
1768944818664.734,1442.4908424908424,,1,0,1768944818.664734
1768944818672.5464,1454.9450549450548,,1,0,1768944818.6725464
1768944818680.359,1466.6666666666663,,1,0,1768944818.680359
1768944818688.1714,1479.120879120879,,1,0,1768944818.6881714
1768944818695.984,1485.7142857142856,,1,0,1768944818.695984
1768944818703.7964,1486.4468864468863,,1,0,1768944818.7037964
1768944818711.609,1487.179487179487,,1,0,1768944818.711609
1768944818719.4214,1482.051282051282,,1,0,1768944818.7194214
1768944818727.234,1473.260073260073,,1,0,1768944818.727234
1768944818735.0464,1465.9340659340658,,1,0,1768944818.7350464
1768944818742.859,1460.805860805861,,1,0,1768944818.742859
1768944818750.6714,1452.014652014652,,1,0,1768944818.7506714
1768944818758.484,1446.8864468864467,,1,0,1768944818.758484
1768944818766.2964,1443.956043956044,,1,0,1768944818.7662964
1768944818774.109,1440.29304029304,,1,0,1768944818.774109
1768944818781.9214,1440.29304029304,,1,0,1768944818.7819214
1768944818789.734,1441.7582417582416,,1,0,1768944818.789734
1768944818797.5464,1438.8278388278388,,1,0,1768944818.7975464
1768944818805.359,1432.9670329670328,,1,0,1768944818.805359
1768944818813.1714,1430.03663003663,,1,0,1768944818.8131714
1768944818820.984,1425.6410256410256,,0,-1,1768944818.820984
1768944818828.7964,1424.175824175824,,0,-1,1768944818.8287964
1768944818836.609,1416.8498168498168,,0,-1,1768944818.836609
1768944818844.4214,1413.9194139194135,,0,-1,1768944818.8444214
1768944818852.234,1407.3260073260071,,0,-1,1768944818.852234
1768944818860.0464,1402.9304029304028,,0,-1,1768944818.8600464
1768944818867.859,1400.0,,0,-1,1768944818.867859
1768944818875.6714,1396.3369963369962,,0,-1,1768944818.8756714
1768944818883.484,1395.6043956043954,,0,-1,1768944818.883484
1768944818891.2964,1396.3369963369962,,0,-1,1768944818.8912964
1768944818899.109,1393.4065934065934,,0,-1,1768944818.899109
1768944818906.9214,1392.6739926739926,,0,-1,1768944818.9069214
1768944818914.734,1394.8717948717947,,0,-1,1768944818.914734
1768944818922.5464,1396.3369963369962,,0,-1,1768944818.9225464
1768944818930.359,1394.8717948717947,,0,-1,1768944818.930359
1768944818938.1714,1397.069597069597,,0,-1,1768944818.9381714
1768944818945.984,1400.7326007326003,,0,-1,1768944818.945984
1768944818953.7964,1400.7326007326003,,0,-1,1768944818.9537964
1768944818961.609,1402.197802197802,,0,-1,1768944818.961609
1768944818969.4214,1406.5934065934066,,0,-1,1768944818.9694214
1768944818977.234,1408.7912087912086,,0,-1,1768944818.977234
1768944818985.0464,1412.4542124542124,,0,-1,1768944818.9850464
1768944818992.859,1416.8498168498168,,0,-1,1768944818.992859
1768944819000.6714,1417.5824175824175,,0,-1,1768944819.0006714
1768944819008.484,1415.3846153846152,,0,-1,1768944819.008484
1768944819016.2964,1413.9194139194135,,0,-1,1768944819.0162964
1768944819024.109,1411.7216117216117,,0,-1,1768944819.024109
1768944819031.9214,1406.5934065934066,,0,-1,1768944819.0319214
1768944819039.734,1408.058608058608,,0,-1,1768944819.039734
1768944819047.5464,1406.5934065934066,,0,-1,1768944819.0475464
1768944819055.359,1404.3956043956043,,0,-1,1768944819.055359
1768944819063.1714,1404.3956043956043,,0,-1,1768944819.0631714
1768944819070.984,1399.2673992673992,,0,-1,1768944819.070984
1768944819078.7964,1392.6739926739926,,0,-1,1768944819.0787964
1768944819086.609,1386.8131868131868,,0,-1,1768944819.086609
1768944819094.4214,1375.091575091575,,0,-1,1768944819.0944214
1768944819102.234,1365.5677655677655,,0,-1,1768944819.102234
1768944819110.0464,1360.4395604395604,,0,-1,1768944819.1100464
1768944819117.859,1355.311355311355,,0,-1,1768944819.117859
1768944819125.6714,1353.8461538461538,,0,-1,1768944819.1256714
1768944819133.484,1360.4395604395604,,0,-1,1768944819.133484
1768944819141.2964,1365.5677655677655,,0,-1,1768944819.1412964
1768944819149.109,1378.021978021978,,0,-1,1768944819.149109
1768944819156.9214,1397.069597069597,,0,-1,1768944819.1569214
1768944819164.734,1412.4542124542124,,0,-1,1768944819.164734
1768944819172.5464,1429.3040293040292,,0,-1,1768944819.1725464
1768944819180.359,1446.8864468864467,,0,-1,1768944819.180359
1768944819188.1714,1460.07326007326,,0,-1,1768944819.1881714
1768944819195.984,1476.923076923077,,0,-1,1768944819.195984
1768944819203.7964,1486.4468864468863,,0,-1,1768944819.2037964
1768944819211.609,1493.040293040293,,0,-1,1768944819.211609
1768944819219.4214,1498.9010989010987,,0,-1,1768944819.2194214
1768944819227.234,1498.9010989010987,,0,-1,1768944819.227234
1768944819235.0464,1504.7619047619046,,0,-1,1768944819.2350464
1768944819242.859,1504.7619047619046,,0,-1,1768944819.242859
1768944819250.6714,1506.9597069597069,,0,-1,1768944819.2506714
1768944819258.484,1507.6923076923076,,0,-1,1768944819.258484
1768944819266.2964,1504.0293040293038,,0,-1,1768944819.2662964
1768944819274.109,1504.0293040293038,,0,-1,1768944819.274109
1768944819281.9214,1497.4358974358972,,0,-1,1768944819.2819214
1768944819289.734,1490.10989010989,,0,-1,1768944819.289734
1768944819297.5464,1483.5164835164835,,0,-1,1768944819.2975464
1768944819305.359,1474.7252747252746,,0,-1,1768944819.305359
1768944819313.1714,1471.062271062271,,0,-1,1768944819.3131714
1768944819320.984,1465.9340659340658,,0,-1,1768944819.320984
1768944819328.7964,1460.805860805861,,0,-1,1768944819.3287964
1768944819336.609,1457.142857142857,,0,-1,1768944819.336609
1768944819344.4214,1451.2820512820513,,0,-1,1768944819.3444214
1768944819352.234,1449.084249084249,,0,-1,1768944819.352234
1768944819360.0464,1444.688644688645,,0,-1,1768944819.3600464
1768944819367.859,1439.5604395604394,,0,-1,1768944819.367859
1768944819375.6714,1436.6300366300366,,0,-1,1768944819.3756714
1768944819383.484,1432.9670329670328,,0,-1,1768944819.383484
1768944819391.2964,1423.4432234432234,,0,-1,1768944819.3912964
1768944819399.109,1416.8498168498168,,0,-1,1768944819.399109
1768944819406.9214,1411.7216117216117,,0,-1,1768944819.4069214
1768944819414.734,1406.5934065934066,,0,-1,1768944819.414734
1768944819422.5464,1402.9304029304028,,0,-1,1768944819.4225464
1768944819430.359,1398.5347985347985,,0,-1,1768944819.430359
1768944819438.1714,1395.6043956043954,,0,-1,1768944819.4381714
1768944819445.984,1397.8021978021975,,0,-1,1768944819.445984
1768944819453.7964,1399.2673992673992,,0,-1,1768944819.4537964
1768944819461.609,1402.9304029304028,,0,-1,1768944819.461609
1768944819469.4214,1410.989010989011,,0,-1,1768944819.4694214
1768944819477.234,1413.9194139194135,,0,-1,1768944819.477234
1768944819485.0464,1416.8498168498168,,0,-1,1768944819.4850464
1768944819492.859,1411.7216117216117,,0,-1,1768944819.492859
1768944819500.6714,1404.3956043956043,,0,-1,1768944819.5006714
1768944819508.484,1399.2673992673992,,0,-1,1768944819.508484
1768944819516.2964,1394.139194139194,,0,-1,1768944819.5162964
1768944819524.109,1390.4761904761904,,0,-1,1768944819.524109
1768944819531.9214,1387.5457875457876,,0,-1,1768944819.5319214
1768944819539.734,1383.8827838827838,,0,-1,1768944819.539734
1768944819547.5464,1385.3479853479853,,0,-1,1768944819.5475464
1768944819555.359,1383.150183150183,,0,-1,1768944819.555359
1768944819563.1714,1384.6153846153843,,0,-1,1768944819.5631714
1768944819570.984,1383.150183150183,,0,-1,1768944819.570984
1768944819578.7964,1382.4175824175825,,0,-1,1768944819.5787964
1768944819586.609,1383.150183150183,,0,-1,1768944819.586609
1768944819594.4214,1376.5567765567764,,0,-1,1768944819.5944214
1768944819602.234,1372.8937728937728,,0,-1,1768944819.602234
1768944819610.0464,1367.032967032967,,0,-1,1768944819.6100464
1768944819617.859,1366.3003663003662,,0,-1,1768944819.617859
1768944819625.6714,1364.8351648351647,,0,-1,1768944819.6256714
1768944819633.484,1364.8351648351647,,0,-1,1768944819.633484
1768944819641.2964,1362.6373626373625,,0,-1,1768944819.6412964
1768944819649.109,1366.3003663003662,,0,-1,1768944819.649109
1768944819656.9214,1366.3003663003662,,0,-1,1768944819.6569214
1768944819664.734,1369.9633699633698,,0,-1,1768944819.664734
1768944819672.5464,1373.6263736263736,,0,-1,1768944819.6725464
1768944819680.359,1378.021978021978,,0,-1,1768944819.680359
1768944819688.1714,1386.8131868131868,,0,-1,1768944819.6881714
1768944819695.984,1391.2087912087911,,0,-1,1768944819.695984
1768944819703.7964,1395.6043956043954,,0,-1,1768944819.7037964
1768944819711.609,1406.5934065934066,,0,-1,1768944819.711609
1768944819719.4214,1413.9194139194135,,0,-1,1768944819.7194214
1768944819727.234,1424.9084249084249,,0,-1,1768944819.727234
1768944819735.0464,1434.4322344322345,,0,-1,1768944819.7350464
1768944819742.859,1444.688644688645,,0,-1,1768944819.742859
1768944819750.6714,1457.875457875458,,0,-1,1768944819.7506714
1768944819758.484,1471.062271062271,,0,-1,1768944819.758484
1768944819766.2964,1478.3882783882782,,0,-1,1768944819.7662964
1768944819774.109,1480.5860805860805,,0,-1,1768944819.774109
1768944819781.9214,1486.4468864468863,,0,-1,1768944819.7819214
1768944819789.734,1487.179487179487,,0,-1,1768944819.789734
1768944819797.5464,1490.8424908424906,,0,-1,1768944819.7975464
1768944819805.359,1487.179487179487,,0,-1,1768944819.805359
1768944819813.1714,1486.4468864468863,,0,-1,1768944819.8131714
1768944819820.984,1483.5164835164835,,0,-1,1768944819.820984
1768944819828.7964,1485.7142857142856,,0,-1,1768944819.8287964
1768944819836.609,1486.4468864468863,,0,-1,1768944819.836609
1768944819844.4214,1489.3772893772891,,0,-1,1768944819.8444214
1768944819852.234,1490.8424908424906,,0,-1,1768944819.852234
1768944819860.0464,1488.6446886446886,,0,-1,1768944819.8600464
1768944819867.859,1484.9816849816848,,0,-1,1768944819.867859
1768944819875.6714,1479.120879120879,,0,-1,1768944819.8756714
1768944819883.484,1471.062271062271,,0,-1,1768944819.883484
1768944819891.2964,1466.6666666666663,,0,-1,1768944819.8912964
1768944819899.109,1460.07326007326,,0,-1,1768944819.899109
1768944819906.9214,1456.4102564102564,,0,-1,1768944819.9069214
1768944819914.734,1452.7472527472526,,0,-1,1768944819.914734
1768944819922.5464,1443.2234432234432,,0,-1,1768944819.9225464
1768944819930.359,1433.6996336996335,,0,-1,1768944819.930359
1768944819938.1714,1422.7106227106226,,0,-1,1768944819.9381714
1768944819945.984,1409.5238095238094,,0,-1,1768944819.945984
1768944819953.7964,1397.8021978021975,,0,-1,1768944819.9537964
1768944819961.609,1386.080586080586,,0,-1,1768944819.961609
1768944819969.4214,1383.150183150183,,0,-1,1768944819.9694214
1768944819977.234,1373.6263736263736,,0,-1,1768944819.977234
1768944819985.0464,1371.428571428571,,0,-1,1768944819.9850464
1768944819992.859,1367.032967032967,,0,-1,1768944819.992859
1768944820000.6714,1366.3003663003662,,0,-1,1768944820.0006714
1768944820008.484,1364.102564102564,,0,-1,1768944820.008484
1768944820016.2964,1368.4981684981683,,0,-1,1768944820.0162964
1768944820024.109,1375.091575091575,,0,-1,1768944820.024109
1768944820031.9214,1382.4175824175825,,0,-1,1768944820.0319214
1768944820039.734,1384.6153846153843,,0,-1,1768944820.039734
1768944820047.5464,1386.8131868131868,,0,-1,1768944820.0475464
1768944820055.359,1387.5457875457876,,0,-1,1768944820.055359
1768944820063.1714,1384.6153846153843,,0,-1,1768944820.0631714
1768944820070.984,1382.4175824175825,,0,-1,1768944820.070984
1768944820078.7964,1381.6849816849815,,0,-1,1768944820.0787964
1768944820086.609,1375.091575091575,,0,-1,1768944820.086609
1768944820094.4214,1371.428571428571,,0,-1,1768944820.0944214
1768944820102.234,1369.230769230769,,0,-1,1768944820.102234
1768944820110.0464,1365.5677655677655,,0,-1,1768944820.1100464
1768944820117.859,1367.032967032967,,0,-1,1768944820.117859
1768944820125.6714,1361.1721611721612,,0,-1,1768944820.1256714
1768944820133.484,1356.043956043956,,0,-1,1768944820.133484
1768944820141.2964,1350.18315018315,,0,-1,1768944820.1412964
1768944820149.109,1347.985347985348,,0,-1,1768944820.149109
1768944820156.9214,1352.3809523809523,,0,-1,1768944820.1569214
1768944820164.734,1352.3809523809523,,0,-1,1768944820.164734
1768944820172.5464,1354.5787545787546,,0,-1,1768944820.1725464
1768944820180.359,1356.7765567765566,,0,-1,1768944820.180359
1768944820188.1714,1355.311355311355,,0,-1,1768944820.1881714
1768944820195.984,1357.5091575091574,,0,-1,1768944820.195984
1768944820203.7964,1358.974358974359,,0,-1,1768944820.2037964
1768944820211.609,1356.043956043956,,0,-1,1768944820.211609
1768944820219.4214,1358.241758241758,,0,-1,1768944820.2194214
1768944820227.234,1354.5787545787546,,0,-1,1768944820.227234
1768944820235.0464,1351.6483516483515,,0,-1,1768944820.2350464
1768944820242.859,1347.985347985348,,0,-1,1768944820.242859
1768944820250.6714,1344.3223443223442,,0,-1,1768944820.2506714
1768944820258.484,1342.857142857143,,0,-1,1768944820.258484
1768944820266.2964,1338.4615384615383,,0,-1,1768944820.2662964
1768944820274.109,1339.194139194139,,0,-1,1768944820.274109
1768944820281.9214,1336.9963369963368,,0,-1,1768944820.2819214
1768944820289.734,1339.92673992674,,0,-1,1768944820.289734
1768944820297.5464,1341.3919413919414,,0,-1,1768944820.2975464
1768944820305.359,1343.5897435897434,,0,-1,1768944820.305359
1768944820313.1714,1349.4505494505493,,0,-1,1768944820.3131714
1768944820320.984,1350.18315018315,,0,-1,1768944820.320984
1768944820328.7964,1356.043956043956,,0,-1,1768944820.3287964
1768944820336.609,1360.4395604395604,,0,-1,1768944820.336609
1768944820344.4214,1368.4981684981683,,0,-1,1768944820.3444214
1768944820352.234,1381.6849816849815,,0,-1,1768944820.352234
1768944820360.0464,1394.139194139194,,0,-1,1768944820.3600464
1768944820367.859,1406.5934065934066,,0,-1,1768944820.367859
1768944820375.6714,1417.5824175824175,,0,-1,1768944820.3756714
1768944820383.484,1429.3040293040292,,0,-1,1768944820.383484
1768944820391.2964,1438.095238095238,,0,-1,1768944820.3912964
1768944820399.109,1449.084249084249,,0,-1,1768944820.399109
1768944820406.9214,1459.3406593406592,,0,-1,1768944820.4069214
1768944820414.734,1462.2710622710622,,0,-1,1768944820.414734
1768944820422.5464,1470.3296703296703,,0,-1,1768944820.4225464
1768944820430.359,1474.7252747252746,,0,-1,1768944820.430359
1768944820438.1714,1481.3186813186812,,0,-1,1768944820.4381714
1768944820445.984,1490.10989010989,,0,-1,1768944820.445984
1768944820453.7964,1494.5054945054944,,0,-1,1768944820.4537964
1768944820461.609,1499.6336996336995,,0,-1,1768944820.461609
1768944820469.4214,1505.4945054945051,,0,-1,1768944820.4694214
1768944820477.234,1507.6923076923076,,0,-1,1768944820.477234
1768944820485.0464,1506.9597069597069,,0,-1,1768944820.4850464
1768944820492.859,1509.89010989011,,0,-1,1768944820.492859
1768944820500.6714,1505.4945054945051,,0,-1,1768944820.5006714
1768944820508.484,1498.168498168498,,0,-1,1768944820.508484
1768944820516.2964,1492.3076923076922,,0,-1,1768944820.5162964
1768944820524.109,1477.6556776556777,,0,-1,1768944820.524109
1768944820531.9214,1466.6666666666663,,0,-1,1768944820.5319214
1768944820539.734,1456.4102564102564,,0,-1,1768944820.539734
1768944820547.5464,1444.688644688645,,0,-1,1768944820.5475464
1768944820555.359,1438.095238095238,,0,-1,1768944820.555359
1768944820563.1714,1427.106227106227,,0,-1,1768944820.5631714
1768944820570.984,1420.5128205128203,,0,-1,1768944820.570984
1768944820578.7964,1412.4542124542124,,0,-1,1768944820.5787964
1768944820586.609,1406.5934065934066,,0,-1,1768944820.586609
1768944820594.4214,1400.7326007326003,,0,-1,1768944820.5944214
1768944820602.234,1392.6739926739926,,0,-1,1768944820.602234
1768944820610.0464,1391.2087912087911,,0,-1,1768944820.6100464
1768944820617.859,1388.278388278388,,0,-1,1768944820.617859
1768944820625.6714,1379.4871794871794,,0,-1,1768944820.6256714
1768944820633.484,1375.8241758241757,,0,-1,1768944820.633484
1768944820641.2964,1371.428571428571,,0,-1,1768944820.6412964
1768944820649.109,1367.032967032967,,0,-1,1768944820.649109
1768944820656.9214,1364.102564102564,,0,-1,1768944820.6569214
1768944820664.734,1358.974358974359,,0,-1,1768944820.664734
1768944820672.5464,1359.7069597069597,,0,-1,1768944820.6725464
1768944820680.359,1360.4395604395604,,0,-1,1768944820.680359
1768944820688.1714,1367.032967032967,,0,-1,1768944820.6881714
1768944820695.984,1377.2893772893772,,0,-1,1768944820.695984
1768944820703.7964,1380.2197802197802,,0,-1,1768944820.7037964
1768944820711.609,1377.2893772893772,,0,-1,1768944820.711609
1768944820719.4214,1372.161172161172,,0,-1,1768944820.7194214
1768944820727.234,1363.3699633699632,,0,-1,1768944820.727234
1768944820735.0464,1354.5787545787546,,0,-1,1768944820.7350464
1768944820742.859,1351.6483516483515,,0,-1,1768944820.742859
1768944820750.6714,1353.8461538461538,,0,-1,1768944820.7506714
1768944820758.484,1358.241758241758,,0,-1,1768944820.758484
1768944820766.2964,1358.974358974359,,0,-1,1768944820.7662964
1768944820774.109,1356.7765567765566,,0,-1,1768944820.774109
1768944820781.9214,1353.8461538461538,,0,-1,1768944820.7819214
1768944820789.734,1354.5787545787546,,0,-1,1768944820.789734
1768944820797.5464,1358.241758241758,,0,-1,1768944820.7975464
1768944820805.359,1359.7069597069597,,0,-1,1768944820.805359
1768944820813.1714,1359.7069597069597,,0,-1,1768944820.8131714
1768944820820.984,1359.7069597069597,,0,-1,1768944820.820984
1768944820828.7964,1355.311355311355,,0,-1,1768944820.8287964
1768944820836.609,1350.9157509157508,,0,-1,1768944820.836609
1768944820844.4214,1347.2527472527472,,0,-1,1768944820.8444214
1768944820852.234,1345.7875457875457,,0,-1,1768944820.852234
1768944820860.0464,1339.92673992674,,0,-1,1768944820.8600464
1768944820867.859,1335.5311355311355,,0,-1,1768944820.867859
1768944820875.6714,1331.135531135531,,0,-1,1768944820.8756714
1768944820883.484,1331.8681318681315,,0,-1,1768944820.883484
1768944820891.2964,1328.2051282051282,,0,-1,1768944820.8912964
1768944820899.109,1328.2051282051282,,0,-1,1768944820.899109
1768944820906.9214,1329.6703296703297,,0,-1,1768944820.9069214
1768944820914.734,1329.6703296703297,,0,-1,1768944820.914734
1768944820922.5464,1330.4029304029302,,0,-1,1768944820.9225464
1768944820930.359,1329.6703296703297,,0,-1,1768944820.930359
1768944820938.1714,1322.3443223443223,,0,-1,1768944820.9381714
1768944820945.984,1319.4139194139193,,0,-1,1768944820.945984
1768944820953.7964,1310.6227106227104,,0,-1,1768944820.9537964
1768944820961.609,1307.6923076923076,,0,-1,1768944820.961609
1768944820969.4214,1301.098901098901,,0,-1,1768944820.9694214
1768944820977.234,1301.8315018315018,,0,-1,1768944820.977234
1768944820985.0464,1303.2967032967033,,0,-1,1768944820.9850464
1768944820992.859,1306.227106227106,,0,-1,1768944820.992859
1768944821000.6714,1312.8205128205127,,0,-1,1768944821.0006714
1768944821008.484,1320.14652014652,,0,-1,1768944821.008484
1768944821016.2964,1328.2051282051282,,0,-1,1768944821.0162964
1768944821024.109,1339.92673992674,,0,-1,1768944821.024109
1768944821031.9214,1349.4505494505493,,0,-1,1768944821.0319214
1768944821039.734,1363.3699633699632,,0,-1,1768944821.039734
1768944821047.5464,1369.230769230769,,0,-1,1768944821.0475464
1768944821055.359,1379.4871794871794,,0,-1,1768944821.055359
1768944821063.1714,1386.080586080586,,0,-1,1768944821.0631714
1768944821070.984,1399.2673992673992,,0,-1,1768944821.070984
1768944821078.7964,1411.7216117216117,,0,-1,1768944821.0787964
1768944821086.609,1424.175824175824,,0,-1,1768944821.086609
1768944821094.4214,1433.6996336996335,,0,-1,1768944821.0944214
1768944821102.234,1444.688644688645,,0,-1,1768944821.102234
1768944821110.0464,1451.2820512820513,,0,-1,1768944821.1100464
1768944821117.859,1461.5384615384614,,0,-1,1768944821.117859
1768944821125.6714,1465.9340659340658,,0,-1,1768944821.1256714
1768944821133.484,1474.7252747252746,,0,-1,1768944821.133484
1768944821141.2964,1480.5860805860805,,0,-1,1768944821.1412964
1768944821149.109,1482.051282051282,,0,-1,1768944821.149109
1768944821156.9214,1487.179487179487,,0,-1,1768944821.1569214
1768944821164.734,1486.4468864468863,,0,-1,1768944821.164734
1768944821172.5464,1488.6446886446886,,0,-1,1768944821.1725464
1768944821180.359,1490.10989010989,,0,-1,1768944821.180359
1768944821188.1714,1486.4468864468863,,0,-1,1768944821.1881714
1768944821195.984,1486.4468864468863,,0,-1,1768944821.195984
1768944821203.7964,1481.3186813186812,,0,-1,1768944821.2037964
1768944821211.609,1479.8534798534797,,0,-1,1768944821.211609
1768944821219.4214,1476.190476190476,,0,-1,1768944821.2194214
1768944821227.234,1466.6666666666663,,0,-1,1768944821.227234
1768944821235.0464,1465.9340659340658,,0,-1,1768944821.2350464
1768944821242.859,1465.201465201465,,0,-1,1768944821.242859
1768944821250.6714,1467.3992673992673,,0,-1,1768944821.2506714
1768944821258.484,1465.201465201465,,0,-1,1768944821.258484
1768944821266.2964,1465.201465201465,,0,-1,1768944821.2662964
1768944821274.109,1458.6080586080584,,0,-1,1768944821.274109
1768944821281.9214,1451.2820512820513,,0,-1,1768944821.2819214
1768944821289.734,1442.4908424908424,,0,-1,1768944821.289734
1768944821297.5464,1432.2344322344322,,0,-1,1768944821.2975464
1768944821305.359,1423.4432234432234,,0,-1,1768944821.305359
1768944821313.1714,1413.9194139194135,,0,-1,1768944821.3131714
1768944821320.984,1405.128205128205,,0,-1,1768944821.320984
1768944821328.7964,1393.4065934065934,,0,-1,1768944821.3287964
1768944821336.609,1383.8827838827838,,0,-1,1768944821.336609
1768944821344.4214,1380.952380952381,,0,-1,1768944821.3444214
1768944821352.234,1372.161172161172,,0,-1,1768944821.352234
1768944821360.0464,1370.6959706959706,,0,-1,1768944821.3600464
1768944821367.859,1364.8351648351647,,0,-1,1768944821.367859
1768944821375.6714,1364.102564102564,,0,-1,1768944821.3756714
1768944821383.484,1360.4395604395604,,0,-1,1768944821.383484
1768944821391.2964,1358.241758241758,,0,-1,1768944821.3912964
1768944821399.109,1354.5787545787546,,0,-1,1768944821.399109
1768944821406.9214,1358.241758241758,,0,-1,1768944821.4069214
1768944821414.734,1363.3699633699632,,0,-1,1768944821.414734
1768944821422.5464,1360.4395604395604,,0,-1,1768944821.4225464
1768944821430.359,1355.311355311355,,0,-1,1768944821.430359
1768944821438.1714,1342.857142857143,,0,-1,1768944821.4381714
1768944821445.984,1337.7289377289376,,0,-1,1768944821.445984
1768944821453.7964,1329.6703296703297,,0,-1,1768944821.4537964
1768944821461.609,1331.8681318681315,,0,-1,1768944821.461609
1768944821469.4214,1331.135531135531,,0,-1,1768944821.4694214
1768944821477.234,1336.263736263736,,0,-1,1768944821.477234
1768944821485.0464,1340.6593406593406,,0,-1,1768944821.4850464
1768944821492.859,1346.5201465201465,,0,-1,1768944821.492859
1768944821500.6714,1349.4505494505493,,0,-1,1768944821.5006714
1768944821508.484,1353.113553113553,,0,-1,1768944821.508484
1768944821516.2964,1350.9157509157508,,0,-1,1768944821.5162964
1768944821524.109,1351.6483516483515,,0,-1,1768944821.524109
1768944821531.9214,1347.2527472527472,,0,-1,1768944821.5319214
1768944821539.734,1348.7179487179487,,0,-1,1768944821.539734
1768944821547.5464,1347.985347985348,,0,-1,1768944821.5475464
1768944821555.359,1348.7179487179487,,0,-1,1768944821.555359
1768944821563.1714,1351.6483516483515,,0,-1,1768944821.5631714
1768944821570.984,1350.9157509157508,,0,-1,1768944821.570984
1768944821578.7964,1350.9157509157508,,0,-1,1768944821.5787964
1768944821586.609,1347.2527472527472,,0,-1,1768944821.586609
1768944821594.4214,1342.124542124542,,0,-1,1768944821.5944214
1768944821602.234,1332.6007326007325,,0,-1,1768944821.602234
1768944821610.0464,1327.4725274725274,,0,-1,1768944821.6100464
1768944821617.859,1319.4139194139193,,0,-1,1768944821.617859
1768944821625.6714,1317.9487179487178,,0,-1,1768944821.6256714
1768944821633.484,1317.9487179487178,,0,-1,1768944821.633484
1768944821641.2964,1316.4835164835165,,0,-1,1768944821.6412964
1768944821649.109,1315.7509157509155,,0,-1,1768944821.649109
1768944821656.9214,1317.9487179487178,,0,-1,1768944821.6569214
1768944821664.734,1313.5531135531137,,0,-1,1768944821.664734
1768944821672.5464,1309.89010989011,,0,-1,1768944821.6725464
1768944821680.359,1309.89010989011,,0,-1,1768944821.680359
1768944821688.1714,1307.6923076923076,,0,-1,1768944821.6881714
1768944821695.984,1309.89010989011,,0,-1,1768944821.695984
1768944821703.7964,1312.8205128205127,,0,-1,1768944821.7037964
1768944821711.609,1313.5531135531137,,0,-1,1768944821.711609
1768944821719.4214,1314.2857142857142,,0,-1,1768944821.7194214
1768944821727.234,1313.5531135531137,,0,-1,1768944821.727234
1768944821735.0464,1312.8205128205127,,0,-1,1768944821.7350464
1768944821742.859,1312.8205128205127,,0,-1,1768944821.742859
1768944821750.6714,1311.3553113553112,,0,-1,1768944821.7506714
1768944821758.484,1311.3553113553112,,0,-1,1768944821.758484
1768944821766.2964,1302.5641025641023,,0,-1,1768944821.7662964
1768944821774.109,1298.9010989010987,,0,-1,1768944821.774109
1768944821781.9214,1292.3076923076922,,0,-1,1768944821.7819214
1768944821789.734,1291.5750915750914,,0,-1,1768944821.789734
1768944821797.5464,1285.7142857142856,,0,-1,1768944821.7975464
1768944821805.359,1285.7142857142856,,0,-1,1768944821.805359
1768944821813.1714,1285.7142857142856,,0,-1,1768944821.8131714
1768944821820.984,1292.3076923076922,,0,-1,1768944821.820984
1768944821828.7964,1296.7032967032967,,0,-1,1768944821.8287964
1768944821836.609,1305.4945054945051,,0,-1,1768944821.836609
1768944821844.4214,1313.5531135531137,,0,-1,1768944821.8444214
1768944821852.234,1326.007326007326,,0,-1,1768944821.852234
1768944821860.0464,1328.937728937729,,0,-1,1768944821.8600464
1768944821867.859,1338.4615384615383,,0,-1,1768944821.867859
1768944821875.6714,1349.4505494505493,,0,-1,1768944821.8756714
1768944821883.484,1366.3003663003662,,0,-1,1768944821.883484
1768944821891.2964,1379.4871794871794,,0,-1,1768944821.8912964
1768944821899.109,1393.4065934065934,,0,-1,1768944821.899109
1768944821906.9214,1402.197802197802,,0,-1,1768944821.9069214
1768944821914.734,1408.058608058608,,0,-1,1768944821.914734
1768944821922.5464,1414.6520146520145,,0,-1,1768944821.9225464
1768944821930.359,1415.3846153846152,,0,-1,1768944821.930359
1768944821938.1714,1421.245421245421,,0,-1,1768944821.9381714
1768944821945.984,1425.6410256410256,,0,-1,1768944821.945984
1768944821953.7964,1428.5714285714284,,0,-1,1768944821.9537964
1768944821961.609,1430.7692307692307,,0,-1,1768944821.961609
1768944821969.4214,1427.106227106227,,0,-1,1768944821.9694214
1768944821977.234,1422.7106227106226,,0,-1,1768944821.977234
1768944821985.0464,1413.1868131868132,,0,-1,1768944821.9850464
1768944821992.859,1409.5238095238094,,0,-1,1768944821.992859
1768944822000.6714,1403.6630036630036,,0,-1,1768944822.0006714
1768944822008.484,1403.6630036630036,,0,-1,1768944822.008484
1768944822016.2964,1406.5934065934066,,0,-1,1768944822.0162964
1768944822024.109,1410.2564102564102,,0,-1,1768944822.024109
1768944822031.9214,1408.058608058608,,0,-1,1768944822.0319214
1768944822039.734,1407.3260073260071,,0,-1,1768944822.039734
1768944822047.5464,1402.197802197802,,0,-1,1768944822.0475464
1768944822055.359,1396.3369963369962,,0,-1,1768944822.055359
1768944822063.1714,1388.278388278388,,0,-1,1768944822.0631714
1768944822070.984,1378.7545787545787,,0,-1,1768944822.070984
1768944822078.7964,1371.428571428571,,0,-1,1768944822.0787964
1768944822086.609,1360.4395604395604,,0,-1,1768944822.086609
1768944822094.4214,1350.9157509157508,,0,-1,1768944822.0944214
1768944822102.234,1344.3223443223442,,0,-1,1768944822.102234
1768944822110.0464,1342.857142857143,,0,-1,1768944822.1100464
1768944822117.859,1336.9963369963368,,0,-1,1768944822.117859
1768944822125.6714,1331.8681318681315,,0,-1,1768944822.1256714
1768944822133.484,1325.2747252747251,,0,-1,1768944822.133484
1768944822141.2964,1323.076923076923,,0,-1,1768944822.1412964
1768944822149.109,1327.4725274725274,,0,-1,1768944822.149109
1768944822156.9214,1331.8681318681315,,0,-1,1768944822.1569214
1768944822164.734,1336.9963369963368,,0,-1,1768944822.164734
1768944822172.5464,1342.857142857143,,0,-1,1768944822.1725464
1768944822180.359,1350.9157509157508,,0,-1,1768944822.180359
1768944822188.1714,1355.311355311355,,0,-1,1768944822.1881714
1768944822195.984,1358.241758241758,,0,-1,1768944822.195984
1768944822203.7964,1356.043956043956,,0,-1,1768944822.2037964
1768944822211.609,1357.5091575091574,,0,-1,1768944822.211609
1768944822219.4214,1356.043956043956,,0,-1,1768944822.2194214
1768944822227.234,1351.6483516483515,,0,-1,1768944822.227234
1768944822235.0464,1346.5201465201465,,0,-1,1768944822.2350464
1768944822242.859,1345.7875457875457,,0,-1,1768944822.242859
1768944822250.6714,1343.5897435897434,,0,-1,1768944822.2506714
1768944822258.484,1340.6593406593406,,0,-1,1768944822.258484
1768944822266.2964,1338.4615384615383,,0,-1,1768944822.2662964
1768944822274.109,1336.9963369963368,,0,-1,1768944822.274109
1768944822281.9214,1334.065934065934,,0,-1,1768944822.2819214
1768944822289.734,1328.937728937729,,0,-1,1768944822.289734
1768944822297.5464,1326.007326007326,,0,-1,1768944822.2975464
1768944822305.359,1324.5421245421244,,0,-1,1768944822.305359
1768944822313.1714,1318.6813186813183,,0,-1,1768944822.3131714
1768944822320.984,1313.5531135531137,,0,-1,1768944822.320984
1768944822328.7964,1310.6227106227104,,0,-1,1768944822.3287964
1768944822336.609,1306.9597069597069,,0,-1,1768944822.336609
1768944822344.4214,1300.3663003663005,,0,-1,1768944822.3444214
1768944822352.234,1296.7032967032967,,0,-1,1768944822.352234
1768944822360.0464,1295.970695970696,,0,-1,1768944822.3600464
1768944822367.859,1293.040293040293,,0,-1,1768944822.367859
1768944822375.6714,1293.7728937728937,,0,-1,1768944822.3756714
1768944822383.484,1293.7728937728937,,1,1,1768944822.383484
1768944822391.2964,1293.7728937728937,,1,1,1768944822.3912964
1768944822399.109,1299.6336996336995,,1,1,1768944822.399109
1768944822406.9214,1307.6923076923076,,1,1,1768944822.4069214
1768944822414.734,1311.3553113553112,,1,1,1768944822.414734
1768944822422.5464,1312.8205128205127,,1,1,1768944822.4225464
1768944822430.359,1312.8205128205127,,1,1,1768944822.430359
1768944822438.1714,1313.5531135531137,,1,1,1768944822.4381714
1768944822445.984,1317.216117216117,,1,1,1768944822.445984
1768944822453.7964,1313.5531135531137,,1,1,1768944822.4537964
1768944822461.609,1312.8205128205127,,1,1,1768944822.461609
1768944822469.4214,1313.5531135531137,,1,1,1768944822.4694214
1768944822477.234,1309.89010989011,,1,1,1768944822.477234
1768944822485.0464,1308.4249084249084,,1,1,1768944822.4850464
1768944822492.859,1306.227106227106,,1,1,1768944822.492859
1768944822500.6714,1301.8315018315018,,1,1,1768944822.5006714
1768944822508.484,1295.970695970696,,1,1,1768944822.508484
1768944822516.2964,1293.7728937728937,,1,1,1768944822.5162964
1768944822524.109,1295.2380952380952,,1,1,1768944822.524109
1768944822531.9214,1297.4358974358977,,1,1,1768944822.5319214
1768944822539.734,1299.6336996336995,,1,1,1768944822.539734
1768944822547.5464,1301.8315018315018,,1,1,1768944822.5475464
1768944822555.359,1304.7619047619046,,1,1,1768944822.555359
1768944822563.1714,1312.8205128205127,,1,1,1768944822.5631714
1768944822570.984,1320.14652014652,,1,1,1768944822.570984
1768944822578.7964,1326.007326007326,,1,1,1768944822.5787964
1768944822586.609,1336.9963369963368,,1,1,1768944822.586609
1768944822594.4214,1346.5201465201465,,1,1,1768944822.5944214
1768944822602.234,1351.6483516483515,,1,1,1768944822.602234
1768944822610.0464,1360.4395604395604,,1,1,1768944822.6100464
1768944822617.859,1369.230769230769,,1,1,1768944822.617859
1768944822625.6714,1372.8937728937728,,1,1,1768944822.6256714
1768944822633.484,1377.2893772893772,,1,1,1768944822.633484
1768944822641.2964,1382.4175824175825,,1,1,1768944822.6412964
1768944822649.109,1383.150183150183,,1,1,1768944822.649109
1768944822656.9214,1384.6153846153843,,1,1,1768944822.6569214
1768944822664.734,1385.3479853479853,,1,1,1768944822.664734
1768944822672.5464,1387.5457875457876,,1,1,1768944822.6725464
1768944822680.359,1383.8827838827838,,1,1,1768944822.680359
1768944822688.1714,1380.952380952381,,1,1,1768944822.6881714
1768944822695.984,1383.8827838827838,,1,1,1768944822.695984
1768944822703.7964,1391.941391941392,,1,1,1768944822.7037964
1768944822711.609,1399.2673992673992,,1,1,1768944822.711609
1768944822719.4214,1402.197802197802,,1,1,1768944822.7194214
1768944822727.234,1400.7326007326003,,1,1,1768944822.727234
1768944822735.0464,1394.139194139194,,1,1,1768944822.7350464
1768944822742.859,1387.5457875457876,,1,1,1768944822.742859
1768944822750.6714,1380.952380952381,,1,1,1768944822.7506714
1768944822758.484,1376.5567765567764,,1,1,1768944822.758484
1768944822766.2964,1369.230769230769,,1,1,1768944822.7662964
1768944822774.109,1364.102564102564,,1,1,1768944822.774109
1768944822781.9214,1359.7069597069597,,1,1,1768944822.7819214
1768944822789.734,1356.043956043956,,1,1,1768944822.789734
1768944822797.5464,1354.5787545787546,,1,1,1768944822.7975464
1768944822805.359,1352.3809523809523,,1,1,1768944822.805359
1768944822813.1714,1354.5787545787546,,1,1,1768944822.8131714
1768944822820.984,1356.043956043956,,1,1,1768944822.820984
1768944822828.7964,1354.5787545787546,,1,1,1768944822.8287964
1768944822836.609,1353.113553113553,,1,1,1768944822.836609
1768944822844.4214,1350.9157509157508,,1,1,1768944822.8444214
1768944822852.234,1348.7179487179487,,1,1,1768944822.852234
1768944822860.0464,1346.5201465201465,,1,1,1768944822.8600464
1768944822867.859,1343.5897435897434,,1,1,1768944822.867859
1768944822875.6714,1339.194139194139,,1,1,1768944822.8756714
1768944822883.484,1334.7985347985348,,1,1,1768944822.883484
1768944822891.2964,1330.4029304029302,,1,1,1768944822.8912964
1768944822899.109,1327.4725274725274,,1,1,1768944822.899109
1768944822906.9214,1326.739926739927,,1,1,1768944822.9069214
1768944822914.734,1328.937728937729,,1,1,1768944822.914734
1768944822922.5464,1329.6703296703297,,1,1,1768944822.9225464
1768944822930.359,1330.4029304029302,,1,1,1768944822.930359
1768944822938.1714,1333.3333333333333,,1,1,1768944822.9381714
1768944822945.984,1334.065934065934,,1,1,1768944822.945984
1768944822953.7964,1337.7289377289376,,1,1,1768944822.9537964
1768944822961.609,1345.054945054945,,1,1,1768944822.961609
1768944822969.4214,1350.9157509157508,,1,1,1768944822.9694214
1768944822977.234,1353.113553113553,,1,1,1768944822.977234
1768944822985.0464,1352.3809523809523,,1,1,1768944822.9850464
1768944822992.859,1350.18315018315,,1,1,1768944822.992859
1768944823000.6714,1347.985347985348,,1,1,1768944823.0006714
1768944823008.484,1346.5201465201465,,1,1,1768944823.008484
1768944823016.2964,1342.124542124542,,1,1,1768944823.0162964
1768944823024.109,1336.9963369963368,,1,1,1768944823.024109
1768944823031.9214,1334.7985347985348,,1,1,1768944823.0319214
1768944823039.734,1335.5311355311355,,1,1,1768944823.039734
1768944823047.5464,1334.7985347985348,,1,1,1768944823.0475464
1768944823055.359,1334.7985347985348,,1,1,1768944823.055359
1768944823063.1714,1331.135531135531,,1,1,1768944823.0631714
1768944823070.984,1326.007326007326,,1,1,1768944823.070984
1768944823078.7964,1321.6117216117216,,1,1,1768944823.0787964
1768944823086.609,1317.216117216117,,1,1,1768944823.086609
1768944823094.4214,1315.7509157509155,,1,1,1768944823.0944214
1768944823102.234,1315.7509157509155,,1,1,1768944823.102234
1768944823110.0464,1318.6813186813183,,1,1,1768944823.1100464
1768944823117.859,1320.14652014652,,1,1,1768944823.117859
1768944823125.6714,1319.4139194139193,,1,1,1768944823.1256714
1768944823133.484,1317.9487179487178,,1,1,1768944823.133484
1768944823141.2964,1316.4835164835165,,1,1,1768944823.1412964
1768944823149.109,1317.216117216117,,1,1,1768944823.149109
1768944823156.9214,1320.14652014652,,1,1,1768944823.1569214
1768944823164.734,1323.076923076923,,1,1,1768944823.164734
1768944823172.5464,1323.8095238095236,,1,1,1768944823.1725464
1768944823180.359,1323.076923076923,,1,1,1768944823.180359
1768944823188.1714,1320.8791208791208,,1,1,1768944823.1881714
1768944823195.984,1321.6117216117216,,1,1,1768944823.195984
1768944823203.7964,1321.6117216117216,,1,1,1768944823.2037964
1768944823211.609,1323.076923076923,,1,1,1768944823.211609
1768944823219.4214,1323.8095238095236,,1,1,1768944823.2194214
1768944823227.234,1324.5421245421244,,1,1,1768944823.227234
1768944823235.0464,1326.739926739927,,1,1,1768944823.2350464
1768944823242.859,1328.937728937729,,1,1,1768944823.242859
1768944823250.6714,1332.6007326007325,,1,1,1768944823.2506714
1768944823258.484,1338.4615384615383,,1,1,1768944823.258484
1768944823266.2964,1343.5897435897434,,1,1,1768944823.2662964
1768944823274.109,1347.985347985348,,1,1,1768944823.274109
1768944823281.9214,1354.5787545787546,,1,1,1768944823.2819214
1768944823289.734,1365.5677655677655,,1,1,1768944823.289734
1768944823297.5464,1371.428571428571,,1,1,1768944823.2975464
1768944823305.359,1375.8241758241757,,1,1,1768944823.305359
1768944823313.1714,1378.7545787545787,,1,1,1768944823.3131714
1768944823320.984,1381.6849816849815,,1,1,1768944823.320984
1768944823328.7964,1385.3479853479853,,1,1,1768944823.3287964
1768944823336.609,1384.6153846153843,,1,1,1768944823.336609
1768944823344.4214,1385.3479853479853,,1,1,1768944823.3444214
1768944823352.234,1386.8131868131868,,1,1,1768944823.352234
1768944823360.0464,1386.080586080586,,1,1,1768944823.3600464
1768944823367.859,1383.150183150183,,1,1,1768944823.367859
1768944823375.6714,1378.7545787545787,,1,1,1768944823.3756714
1768944823383.484,1375.8241758241757,,1,1,1768944823.383484
1768944823391.2964,1375.8241758241757,,1,1,1768944823.3912964
1768944823399.109,1375.091575091575,,1,1,1768944823.399109
1768944823406.9214,1373.6263736263736,,1,1,1768944823.4069214
1768944823414.734,1369.9633699633698,,1,1,1768944823.414734
1768944823422.5464,1367.7655677655678,,1,1,1768944823.4225464
1768944823430.359,1367.032967032967,,1,1,1768944823.430359
1768944823438.1714,1365.5677655677655,,1,1,1768944823.4381714
1768944823445.984,1361.1721611721612,,1,1,1768944823.445984
1768944823453.7964,1358.241758241758,,1,1,1768944823.4537964
1768944823461.609,1354.5787545787546,,1,1,1768944823.461609
1768944823469.4214,1353.8461538461538,,1,1,1768944823.4694214
1768944823477.234,1353.8461538461538,,1,1,1768944823.477234
1768944823485.0464,1353.8461538461538,,1,1,1768944823.4850464
1768944823492.859,1353.8461538461538,,1,1,1768944823.492859
1768944823500.6714,1353.8461538461538,,1,1,1768944823.5006714
1768944823508.484,1354.5787545787546,,1,1,1768944823.508484
1768944823516.2964,1353.8461538461538,,1,1,1768944823.5162964
1768944823524.109,1351.6483516483515,,1,1,1768944823.524109
1768944823531.9214,1344.3223443223442,,1,1,1768944823.5319214
1768944823539.734,1339.194139194139,,1,1,1768944823.539734
1768944823547.5464,1338.4615384615383,,1,1,1768944823.5475464
1768944823555.359,1339.92673992674,,1,1,1768944823.555359
1768944823563.1714,1342.124542124542,,1,1,1768944823.5631714
1768944823570.984,1342.857142857143,,1,1,1768944823.570984
1768944823578.7964,1344.3223443223442,,1,1,1768944823.5787964
1768944823586.609,1342.857142857143,,1,1,1768944823.586609
1768944823594.4214,1341.3919413919414,,1,1,1768944823.5944214
1768944823602.234,1336.9963369963368,,1,1,1768944823.602234
1768944823610.0464,1333.3333333333333,,1,1,1768944823.6100464
1768944823617.859,1331.8681318681315,,1,1,1768944823.617859
1768944823625.6714,1329.6703296703297,,1,1,1768944823.6256714
1768944823633.484,1330.4029304029302,,1,1,1768944823.633484
1768944823641.2964,1331.8681318681315,,1,1,1768944823.6412964
1768944823649.109,1332.6007326007325,,1,1,1768944823.649109
1768944823656.9214,1335.5311355311355,,1,1,1768944823.6569214
1768944823664.734,1336.263736263736,,1,1,1768944823.664734
1768944823672.5464,1336.263736263736,,1,1,1768944823.6725464
1768944823680.359,1334.7985347985348,,1,1,1768944823.680359
1768944823688.1714,1332.6007326007325,,1,1,1768944823.6881714
1768944823695.984,1327.4725274725274,,1,1,1768944823.695984
1768944823703.7964,1320.14652014652,,1,1,1768944823.7037964
1768944823711.609,1312.8205128205127,,1,1,1768944823.711609
1768944823719.4214,1313.5531135531137,,1,1,1768944823.7194214
1768944823727.234,1315.7509157509155,,1,1,1768944823.727234
1768944823735.0464,1319.4139194139193,,1,1,1768944823.7350464
1768944823742.859,1323.8095238095236,,1,1,1768944823.742859
1768944823750.6714,1326.739926739927,,1,1,1768944823.7506714
1768944823758.484,1331.135531135531,,1,1,1768944823.758484
1768944823766.2964,1334.065934065934,,1,1,1768944823.7662964
1768944823774.109,1336.263736263736,,1,1,1768944823.774109
1768944823781.9214,1338.4615384615383,,1,1,1768944823.7819214
1768944823789.734,1338.4615384615383,,1,1,1768944823.789734
1768944823797.5464,1339.194139194139,,1,1,1768944823.7975464
1768944823805.359,1337.7289377289376,,1,1,1768944823.805359
1768944823813.1714,1331.8681318681315,,1,1,1768944823.8131714
1768944823820.984,1326.739926739927,,1,1,1768944823.820984
1768944823828.7964,1324.5421245421244,,1,1,1768944823.8287964
1768944823836.609,1325.2747252747251,,1,1,1768944823.836609
1768944823844.4214,1327.4725274725274,,1,1,1768944823.8444214
1768944823852.234,1331.8681318681315,,1,1,1768944823.852234
1768944823860.0464,1335.5311355311355,,1,1,1768944823.8600464
1768944823867.859,1338.4615384615383,,1,1,1768944823.867859
1768944823875.6714,1342.124542124542,,1,1,1768944823.8756714
1768944823883.484,1344.3223443223442,,1,1,1768944823.883484
1768944823891.2964,1347.985347985348,,1,1,1768944823.8912964
1768944823899.109,1360.4395604395604,,1,1,1768944823.899109
1768944823906.9214,1372.161172161172,,1,1,1768944823.9069214
1768944823914.734,1382.4175824175825,,1,1,1768944823.914734
1768944823922.5464,1387.5457875457876,,1,1,1768944823.9225464
1768944823930.359,1388.278388278388,,1,1,1768944823.930359
1768944823938.1714,1389.7435897435896,,1,1,1768944823.9381714
1768944823945.984,1391.941391941392,,1,1,1768944823.945984
1768944823953.7964,1391.941391941392,,1,1,1768944823.9537964
1768944823961.609,1390.4761904761904,,1,1,1768944823.961609
1768944823969.4214,1386.8131868131868,,1,1,1768944823.9694214
1768944823977.234,1383.150183150183,,1,1,1768944823.977234
1768944823985.0464,1378.021978021978,,1,1,1768944823.9850464
1768944823992.859,1367.032967032967,,1,1,1768944823.992859
1768944824000.6714,1356.7765567765566,,1,1,1768944824.0006714
1768944824008.484,1347.2527472527472,,1,1,1768944824.008484
1768944824016.2964,1339.92673992674,,1,1,1768944824.0162964
1768944824024.109,1334.7985347985348,,1,1,1768944824.024109
1768944824031.9214,1338.4615384615383,,1,1,1768944824.0319214
1768944824039.734,1340.6593406593406,,1,1,1768944824.039734
1768944824047.5464,1345.054945054945,,1,1,1768944824.0475464
1768944824055.359,1347.985347985348,,1,1,1768944824.055359
1768944824063.1714,1348.7179487179487,,1,1,1768944824.0631714
1768944824070.984,1352.3809523809523,,1,1,1768944824.070984
1768944824078.7964,1356.7765567765566,,1,1,1768944824.0787964
1768944824086.609,1359.7069597069597,,1,1,1768944824.086609
1768944824094.4214,1358.974358974359,,1,1,1768944824.0944214
1768944824102.234,1356.043956043956,,1,1,1768944824.102234
1768944824110.0464,1352.3809523809523,,1,1,1768944824.1100464
1768944824117.859,1350.9157509157508,,1,1,1768944824.117859
1768944824125.6714,1348.7179487179487,,1,1,1768944824.1256714
1768944824133.484,1347.2527472527472,,1,1,1768944824.133484
1768944824141.2964,1346.5201465201465,,1,1,1768944824.1412964
1768944824149.109,1345.054945054945,,1,1,1768944824.149109
1768944824156.9214,1345.7875457875457,,1,1,1768944824.1569214
1768944824164.734,1349.4505494505493,,1,1,1768944824.164734
1768944824172.5464,1351.6483516483515,,1,1,1768944824.1725464
1768944824180.359,1353.8461538461538,,1,1,1768944824.180359
1768944824188.1714,1354.5787545787546,,1,1,1768944824.1881714
1768944824195.984,1356.043956043956,,1,1,1768944824.195984
1768944824203.7964,1356.7765567765566,,1,1,1768944824.2037964
1768944824211.609,1357.5091575091574,,1,1,1768944824.211609
1768944824219.4214,1357.5091575091574,,1,1,1768944824.2194214
1768944824227.234,1354.5787545787546,,1,1,1768944824.227234
1768944824235.0464,1353.113553113553,,1,1,1768944824.2350464
1768944824242.859,1353.113553113553,,1,1,1768944824.242859
1768944824250.6714,1350.9157509157508,,1,1,1768944824.2506714
1768944824258.484,1350.18315018315,,1,1,1768944824.258484
1768944824266.2964,1350.18315018315,,1,1,1768944824.2662964
1768944824274.109,1352.3809523809523,,1,1,1768944824.274109
1768944824281.9214,1353.113553113553,,1,1,1768944824.2819214
1768944824289.734,1356.043956043956,,1,1,1768944824.289734
1768944824297.5464,1354.5787545787546,,1,1,1768944824.2975464
1768944824305.359,1351.6483516483515,,1,1,1768944824.305359
1768944824313.1714,1347.2527472527472,,1,1,1768944824.3131714
1768944824320.984,1342.857142857143,,1,1,1768944824.320984
1768944824328.7964,1336.9963369963368,,1,1,1768944824.3287964
1768944824336.609,1330.4029304029302,,1,1,1768944824.336609
1768944824344.4214,1326.739926739927,,1,1,1768944824.3444214
1768944824352.234,1326.739926739927,,1,1,1768944824.352234
1768944824360.0464,1329.6703296703297,,1,1,1768944824.3600464
1768944824367.859,1333.3333333333333,,1,1,1768944824.367859
1768944824375.6714,1337.7289377289376,,1,1,1768944824.3756714
1768944824383.484,1340.6593406593406,,1,1,1768944824.383484
1768944824391.2964,1339.194139194139,,1,1,1768944824.3912964
1768944824399.109,1334.7985347985348,,1,1,1768944824.399109
1768944824406.9214,1331.8681318681315,,1,1,1768944824.4069214
1768944824414.734,1330.4029304029302,,1,1,1768944824.414734
1768944824422.5464,1332.6007326007325,,1,1,1768944824.4225464
1768944824430.359,1335.5311355311355,,1,1,1768944824.430359
1768944824438.1714,1338.4615384615383,,1,1,1768944824.4381714
1768944824445.984,1340.6593406593406,,1,1,1768944824.445984
1768944824453.7964,1342.857142857143,,1,1,1768944824.4537964
1768944824461.609,1346.5201465201465,,1,1,1768944824.461609
1768944824469.4214,1350.9157509157508,,1,1,1768944824.4694214
1768944824477.234,1356.7765567765566,,1,1,1768944824.477234
1768944824485.0464,1364.102564102564,,1,1,1768944824.4850464
1768944824492.859,1370.6959706959706,,1,1,1768944824.492859
1768944824500.6714,1374.3589743589744,,1,1,1768944824.5006714
1768944824508.484,1375.8241758241757,,1,1,1768944824.508484
1768944824516.2964,1378.7545787545787,,1,1,1768944824.5162964
1768944824524.109,1380.952380952381,,1,1,1768944824.524109
1768944824531.9214,1385.3479853479853,,1,1,1768944824.5319214
1768944824539.734,1386.080586080586,,1,1,1768944824.539734
1768944824547.5464,1381.6849816849815,,1,1,1768944824.5475464
1768944824555.359,1381.6849816849815,,1,1,1768944824.555359
1768944824563.1714,1382.4175824175825,,1,1,1768944824.5631714
1768944824570.984,1377.2893772893772,,1,1,1768944824.570984
1768944824578.7964,1375.091575091575,,1,1,1768944824.5787964
1768944824586.609,1375.091575091575,,1,1,1768944824.586609
1768944824594.4214,1372.8937728937728,,1,1,1768944824.5944214
1768944824602.234,1368.4981684981683,,1,1,1768944824.602234
1768944824610.0464,1367.032967032967,,1,1,1768944824.6100464
1768944824617.859,1370.6959706959706,,1,1,1768944824.617859
1768944824625.6714,1374.3589743589744,,1,1,1768944824.6256714
1768944824633.484,1375.091575091575,,1,1,1768944824.633484
1768944824641.2964,1379.4871794871794,,1,1,1768944824.6412964
1768944824649.109,1386.080586080586,,1,1,1768944824.649109
1768944824656.9214,1389.0109890109889,,1,1,1768944824.6569214
1768944824664.734,1390.4761904761904,,1,1,1768944824.664734
1768944824672.5464,1387.5457875457876,,1,1,1768944824.6725464
1768944824680.359,1383.8827838827838,,1,1,1768944824.680359
1768944824688.1714,1382.4175824175825,,1,1,1768944824.6881714
1768944824695.984,1381.6849816849815,,1,1,1768944824.695984
1768944824703.7964,1378.021978021978,,1,1,1768944824.7037964
1768944824711.609,1375.8241758241757,,1,1,1768944824.711609
1768944824719.4214,1371.428571428571,,1,1,1768944824.7194214
1768944824727.234,1366.3003663003662,,1,1,1768944824.727234
1768944824735.0464,1362.6373626373625,,1,1,1768944824.7350464
1768944824742.859,1359.7069597069597,,1,1,1768944824.742859
1768944824750.6714,1359.7069597069597,,1,1,1768944824.7506714
1768944824758.484,1360.4395604395604,,1,1,1768944824.758484
1768944824766.2964,1364.102564102564,,1,1,1768944824.7662964
1768944824774.109,1366.3003663003662,,1,1,1768944824.774109
1768944824781.9214,1367.032967032967,,1,1,1768944824.7819214
1768944824789.734,1364.102564102564,,1,1,1768944824.789734
1768944824797.5464,1364.102564102564,,1,1,1768944824.7975464
1768944824805.359,1361.904761904762,,1,1,1768944824.805359
1768944824813.1714,1356.043956043956,,1,1,1768944824.8131714
1768944824820.984,1350.18315018315,,1,1,1768944824.820984
1768944824828.7964,1347.985347985348,,1,1,1768944824.8287964
1768944824836.609,1342.124542124542,,1,1,1768944824.836609
1768944824844.4214,1337.7289377289376,,1,1,1768944824.8444214
1768944824852.234,1336.9963369963368,,1,1,1768944824.852234
1768944824860.0464,1338.4615384615383,,1,1,1768944824.8600464
1768944824867.859,1340.6593406593406,,1,1,1768944824.867859
1768944824875.6714,1345.054945054945,,1,1,1768944824.8756714
1768944824883.484,1345.7875457875457,,1,1,1768944824.883484
1768944824891.2964,1344.3223443223442,,1,1,1768944824.8912964
1768944824899.109,1347.985347985348,,1,1,1768944824.899109
1768944824906.9214,1353.113553113553,,1,1,1768944824.9069214
1768944824914.734,1359.7069597069597,,1,1,1768944824.914734
1768944824922.5464,1361.904761904762,,1,1,1768944824.9225464
1768944824930.359,1362.6373626373625,,1,1,1768944824.930359
1768944824938.1714,1366.3003663003662,,1,1,1768944824.9381714
1768944824945.984,1367.7655677655678,,1,1,1768944824.945984
1768944824953.7964,1369.230769230769,,1,1,1768944824.9537964
1768944824961.609,1372.8937728937728,,1,1,1768944824.961609
1768944824969.4214,1375.8241758241757,,1,1,1768944824.9694214
1768944824977.234,1375.8241758241757,,1,1,1768944824.977234
1768944824985.0464,1372.161172161172,,1,1,1768944824.9850464
1768944824992.859,1365.5677655677655,,1,1,1768944824.992859
1768944825000.6714,1360.4395604395604,,1,1,1768944825.0006714
1768944825008.484,1357.5091575091574,,1,1,1768944825.008484
1768944825016.2964,1354.5787545787546,,1,1,1768944825.0162964
1768944825024.109,1353.8461538461538,,1,1,1768944825.024109
1768944825031.9214,1354.5787545787546,,1,1,1768944825.0319214
1768944825039.734,1354.5787545787546,,1,1,1768944825.039734
1768944825047.5464,1352.3809523809523,,1,1,1768944825.0475464
1768944825055.359,1352.3809523809523,,1,1,1768944825.055359
1768944825063.1714,1356.7765567765566,,1,1,1768944825.0631714
1768944825070.984,1361.1721611721612,,1,1,1768944825.070984
1768944825078.7964,1368.4981684981683,,1,1,1768944825.0787964
1768944825086.609,1378.7545787545787,,1,1,1768944825.086609
1768944825094.4214,1383.150183150183,,1,1,1768944825.0944214
1768944825102.234,1384.6153846153843,,1,1,1768944825.102234
1768944825110.0464,1387.5457875457876,,1,1,1768944825.1100464
1768944825117.859,1385.3479853479853,,1,1,1768944825.117859
1768944825125.6714,1380.2197802197802,,1,1,1768944825.1256714
1768944825133.484,1378.7545787545787,,1,1,1768944825.133484
1768944825141.2964,1383.8827838827838,,1,1,1768944825.1412964
1768944825149.109,1390.4761904761904,,1,1,1768944825.149109
1768944825156.9214,1396.3369963369962,,1,1,1768944825.1569214
1768944825164.734,1405.128205128205,,1,1,1768944825.164734
1768944825172.5464,1413.1868131868132,,1,1,1768944825.1725464
1768944825180.359,1419.047619047619,,1,1,1768944825.180359
1768944825188.1714,1420.5128205128203,,0,-1,1768944825.1881714
1768944825195.984,1421.245421245421,,0,-1,1768944825.195984
1768944825203.7964,1420.5128205128203,,0,-1,1768944825.2037964
1768944825211.609,1413.1868131868132,,0,-1,1768944825.211609
1768944825219.4214,1402.9304029304028,,0,-1,1768944825.2194214
1768944825227.234,1398.5347985347985,,0,-1,1768944825.227234
1768944825235.0464,1396.3369963369962,,0,-1,1768944825.2350464
1768944825242.859,1392.6739926739926,,0,-1,1768944825.242859
1768944825250.6714,1389.0109890109889,,0,-1,1768944825.2506714
1768944825258.484,1387.5457875457876,,0,-1,1768944825.258484
1768944825266.2964,1383.150183150183,,0,-1,1768944825.2662964
1768944825274.109,1378.021978021978,,0,-1,1768944825.274109
1768944825281.9214,1375.091575091575,,0,-1,1768944825.2819214
1768944825289.734,1373.6263736263736,,0,-1,1768944825.289734
1768944825297.5464,1369.230769230769,,0,-1,1768944825.2975464
1768944825305.359,1369.230769230769,,0,-1,1768944825.305359
1768944825313.1714,1372.161172161172,,0,-1,1768944825.3131714
1768944825320.984,1373.6263736263736,,0,-1,1768944825.320984
1768944825328.7964,1374.3589743589744,,0,-1,1768944825.3287964
1768944825336.609,1372.8937728937728,,0,-1,1768944825.336609
1768944825344.4214,1369.230769230769,,0,-1,1768944825.3444214
1768944825352.234,1364.102564102564,,0,-1,1768944825.352234
1768944825360.0464,1363.3699633699632,,0,-1,1768944825.3600464
1768944825367.859,1362.6373626373625,,0,-1,1768944825.367859
1768944825375.6714,1365.5677655677655,,0,-1,1768944825.3756714
1768944825383.484,1366.3003663003662,,0,-1,1768944825.383484
1768944825391.2964,1364.102564102564,,0,-1,1768944825.3912964
1768944825399.109,1360.4395604395604,,0,-1,1768944825.399109
1768944825406.9214,1358.241758241758,,0,-1,1768944825.4069214
1768944825414.734,1356.043956043956,,0,-1,1768944825.414734
1768944825422.5464,1356.043956043956,,0,-1,1768944825.4225464
1768944825430.359,1359.7069597069597,,0,-1,1768944825.430359
1768944825438.1714,1358.974358974359,,0,-1,1768944825.4381714
1768944825445.984,1364.8351648351647,,0,-1,1768944825.445984
1768944825453.7964,1369.230769230769,,0,-1,1768944825.4537964
1768944825461.609,1374.3589743589744,,0,-1,1768944825.461609
1768944825469.4214,1381.6849816849815,,0,-1,1768944825.4694214
1768944825477.234,1383.150183150183,,0,-1,1768944825.477234
1768944825485.0464,1379.4871794871794,,0,-1,1768944825.4850464
1768944825492.859,1379.4871794871794,,0,-1,1768944825.492859
1768944825500.6714,1378.021978021978,,0,-1,1768944825.5006714
1768944825508.484,1372.161172161172,,0,-1,1768944825.508484
1768944825516.2964,1367.7655677655678,,0,-1,1768944825.5162964
1768944825524.109,1363.3699633699632,,0,-1,1768944825.524109
1768944825531.9214,1358.241758241758,,0,-1,1768944825.5319214
1768944825539.734,1353.113553113553,,0,-1,1768944825.539734
1768944825547.5464,1356.7765567765566,,0,-1,1768944825.5475464
1768944825555.359,1356.043956043956,,0,-1,1768944825.555359
1768944825563.1714,1360.4395604395604,,0,-1,1768944825.5631714
1768944825570.984,1361.1721611721612,,0,-1,1768944825.570984
1768944825578.7964,1358.241758241758,,0,-1,1768944825.5787964
1768944825586.609,1358.974358974359,,0,-1,1768944825.586609
1768944825594.4214,1358.974358974359,,0,-1,1768944825.5944214
1768944825602.234,1358.974358974359,,0,-1,1768944825.602234
1768944825610.0464,1356.043956043956,,0,-1,1768944825.6100464
1768944825617.859,1350.9157509157508,,0,-1,1768944825.617859
1768944825625.6714,1349.4505494505493,,0,-1,1768944825.6256714
1768944825633.484,1346.5201465201465,,0,-1,1768944825.633484
1768944825641.2964,1342.124542124542,,0,-1,1768944825.6412964
1768944825649.109,1344.3223443223442,,0,-1,1768944825.649109
1768944825656.9214,1347.985347985348,,0,-1,1768944825.6569214
1768944825664.734,1350.18315018315,,0,-1,1768944825.664734
1768944825672.5464,1356.7765567765566,,0,-1,1768944825.6725464
1768944825680.359,1366.3003663003662,,0,-1,1768944825.680359
1768944825688.1714,1375.8241758241757,,0,-1,1768944825.6881714
1768944825695.984,1379.4871794871794,,0,-1,1768944825.695984
1768944825703.7964,1383.150183150183,,0,-1,1768944825.7037964
1768944825711.609,1390.4761904761904,,0,-1,1768944825.711609
1768944825719.4214,1395.6043956043954,,0,-1,1768944825.7194214
1768944825727.234,1400.0,,0,-1,1768944825.727234
1768944825735.0464,1406.5934065934066,,0,-1,1768944825.7350464
1768944825742.859,1410.989010989011,,0,-1,1768944825.742859
1768944825750.6714,1412.4542124542124,,0,-1,1768944825.7506714
1768944825758.484,1417.5824175824175,,0,-1,1768944825.758484
1768944825766.2964,1415.3846153846152,,0,-1,1768944825.7662964
1768944825774.109,1414.6520146520145,,0,-1,1768944825.774109
1768944825781.9214,1422.7106227106226,,0,-1,1768944825.7819214
1768944825789.734,1427.8388278388277,,0,-1,1768944825.789734
1768944825797.5464,1428.5714285714284,,0,-1,1768944825.7975464
1768944825805.359,1430.7692307692307,,0,-1,1768944825.805359
1768944825813.1714,1430.7692307692307,,0,-1,1768944825.8131714
1768944825820.984,1428.5714285714284,,0,-1,1768944825.820984
1768944825828.7964,1427.106227106227,,0,-1,1768944825.8287964
1768944825836.609,1427.8388278388277,,0,-1,1768944825.836609
1768944825844.4214,1429.3040293040292,,0,-1,1768944825.8444214
1768944825852.234,1429.3040293040292,,0,-1,1768944825.852234
1768944825860.0464,1427.106227106227,,0,-1,1768944825.8600464
1768944825867.859,1430.03663003663,,0,-1,1768944825.867859
1768944825875.6714,1434.4322344322345,,0,-1,1768944825.8756714
1768944825883.484,1435.164835164835,,0,-1,1768944825.883484
1768944825891.2964,1427.8388278388277,,0,-1,1768944825.8912964
1768944825899.109,1416.8498168498168,,0,-1,1768944825.899109
1768944825906.9214,1408.058608058608,,0,-1,1768944825.9069214
1768944825914.734,1397.8021978021975,,0,-1,1768944825.914734
1768944825922.5464,1391.2087912087911,,0,-1,1768944825.9225464
1768944825930.359,1386.8131868131868,,0,-1,1768944825.930359
1768944825938.1714,1383.150183150183,,0,-1,1768944825.9381714
1768944825945.984,1379.4871794871794,,0,-1,1768944825.945984
1768944825953.7964,1380.2197802197802,,0,-1,1768944825.9537964
1768944825961.609,1378.021978021978,,0,-1,1768944825.961609
1768944825969.4214,1378.7545787545787,,0,-1,1768944825.9694214
1768944825977.234,1377.2893772893772,,0,-1,1768944825.977234
1768944825985.0464,1369.9633699633698,,0,-1,1768944825.9850464
1768944825992.859,1368.4981684981683,,0,-1,1768944825.992859
1768944826000.6714,1365.5677655677655,,0,-1,1768944826.0006714
1768944826008.484,1362.6373626373625,,0,-1,1768944826.008484
1768944826016.2964,1363.3699633699632,,0,-1,1768944826.0162964
1768944826024.109,1361.1721611721612,,0,-1,1768944826.024109
1768944826031.9214,1357.5091575091574,,0,-1,1768944826.0319214
1768944826039.734,1361.1721611721612,,0,-1,1768944826.039734
1768944826047.5464,1361.904761904762,,0,-1,1768944826.0475464
1768944826055.359,1363.3699633699632,,0,-1,1768944826.055359
1768944826063.1714,1367.7655677655678,,0,-1,1768944826.0631714
1768944826070.984,1367.7655677655678,,0,-1,1768944826.070984
1768944826078.7964,1372.8937728937728,,0,-1,1768944826.0787964
1768944826086.609,1379.4871794871794,,0,-1,1768944826.086609
1768944826094.4214,1381.6849816849815,,0,-1,1768944826.0944214
1768944826102.234,1384.6153846153843,,0,-1,1768944826.102234
1768944826110.0464,1389.0109890109889,,0,-1,1768944826.1100464
1768944826117.859,1384.6153846153843,,0,-1,1768944826.117859
1768944826125.6714,1379.4871794871794,,0,-1,1768944826.1256714
1768944826133.484,1371.428571428571,,0,-1,1768944826.133484
1768944826141.2964,1361.904761904762,,0,-1,1768944826.1412964
1768944826149.109,1359.7069597069597,,0,-1,1768944826.149109
1768944826156.9214,1357.5091575091574,,0,-1,1768944826.1569214
1768944826164.734,1356.7765567765566,,0,-1,1768944826.164734
1768944826172.5464,1360.4395604395604,,0,-1,1768944826.1725464
1768944826180.359,1362.6373626373625,,0,-1,1768944826.180359
1768944826188.1714,1363.3699633699632,,0,-1,1768944826.1881714
1768944826195.984,1369.230769230769,,0,-1,1768944826.195984
1768944826203.7964,1369.9633699633698,,0,-1,1768944826.2037964
1768944826211.609,1369.9633699633698,,0,-1,1768944826.211609
1768944826219.4214,1364.102564102564,,0,-1,1768944826.2194214
1768944826227.234,1358.974358974359,,0,-1,1768944826.227234
1768944826235.0464,1353.8461538461538,,0,-1,1768944826.2350464
1768944826242.859,1346.5201465201465,,0,-1,1768944826.242859
1768944826250.6714,1345.054945054945,,0,-1,1768944826.2506714
1768944826258.484,1341.3919413919414,,0,-1,1768944826.258484
1768944826266.2964,1336.9963369963368,,0,-1,1768944826.2662964
1768944826274.109,1332.6007326007325,,0,-1,1768944826.274109
1768944826281.9214,1335.5311355311355,,0,-1,1768944826.2819214
1768944826289.734,1336.9963369963368,,0,-1,1768944826.289734
1768944826297.5464,1342.857142857143,,0,-1,1768944826.2975464
1768944826305.359,1347.985347985348,,0,-1,1768944826.305359
1768944826313.1714,1358.974358974359,,0,-1,1768944826.3131714
1768944826320.984,1364.8351648351647,,0,-1,1768944826.320984
1768944826328.7964,1374.3589743589744,,0,-1,1768944826.3287964
1768944826336.609,1380.2197802197802,,0,-1,1768944826.336609
1768944826344.4214,1387.5457875457876,,0,-1,1768944826.3444214
1768944826352.234,1390.4761904761904,,0,-1,1768944826.352234
1768944826360.0464,1388.278388278388,,0,-1,1768944826.3600464
1768944826367.859,1390.4761904761904,,0,-1,1768944826.367859
1768944826375.6714,1390.4761904761904,,0,-1,1768944826.3756714
1768944826383.484,1397.069597069597,,0,-1,1768944826.383484
1768944826391.2964,1399.2673992673992,,0,-1,1768944826.3912964
1768944826399.109,1402.197802197802,,0,-1,1768944826.399109
1768944826406.9214,1403.6630036630036,,0,-1,1768944826.4069214
1768944826414.734,1407.3260073260071,,0,-1,1768944826.414734
1768944826422.5464,1406.5934065934066,,0,-1,1768944826.4225464
1768944826430.359,1410.2564102564102,,0,-1,1768944826.430359
1768944826438.1714,1414.6520146520145,,0,-1,1768944826.4381714
1768944826445.984,1417.5824175824175,,0,-1,1768944826.445984
1768944826453.7964,1424.175824175824,,0,-1,1768944826.4537964
1768944826461.609,1430.7692307692307,,0,-1,1768944826.461609
1768944826469.4214,1434.4322344322345,,0,-1,1768944826.4694214
1768944826477.234,1439.5604395604394,,0,-1,1768944826.477234
1768944826485.0464,1443.956043956044,,0,-1,1768944826.4850464
1768944826492.859,1444.688644688645,,0,-1,1768944826.492859
1768944826500.6714,1448.3516483516482,,0,-1,1768944826.5006714
1768944826508.484,1450.5494505494505,,0,-1,1768944826.508484
1768944826516.2964,1449.084249084249,,0,-1,1768944826.5162964
1768944826524.109,1446.8864468864467,,0,-1,1768944826.524109
1768944826531.9214,1443.2234432234432,,0,-1,1768944826.5319214
1768944826539.734,1437.362637362637,,0,-1,1768944826.539734
1768944826547.5464,1430.03663003663,,0,-1,1768944826.5475464
1768944826555.359,1427.8388278388277,,0,-1,1768944826.555359
1768944826563.1714,1419.047619047619,,0,-1,1768944826.5631714
1768944826570.984,1413.9194139194135,,0,-1,1768944826.570984
1768944826578.7964,1411.7216117216117,,0,-1,1768944826.5787964
1768944826586.609,1407.3260073260071,,0,-1,1768944826.586609
1768944826594.4214,1410.2564102564102,,0,-1,1768944826.5944214
1768944826602.234,1409.5238095238094,,0,-1,1768944826.602234
1768944826610.0464,1412.4542124542124,,0,-1,1768944826.6100464
1768944826617.859,1410.989010989011,,0,-1,1768944826.617859
1768944826625.6714,1408.7912087912086,,0,-1,1768944826.6256714
1768944826633.484,1407.3260073260071,,0,-1,1768944826.633484
1768944826641.2964,1400.0,,0,-1,1768944826.6412964
1768944826649.109,1395.6043956043954,,0,-1,1768944826.649109
1768944826656.9214,1394.8717948717947,,0,-1,1768944826.6569214
1768944826664.734,1390.4761904761904,,0,-1,1768944826.664734
1768944826672.5464,1388.278388278388,,0,-1,1768944826.6725464
1768944826680.359,1382.4175824175825,,0,-1,1768944826.680359
1768944826688.1714,1378.021978021978,,0,-1,1768944826.6881714
1768944826695.984,1375.8241758241757,,0,-1,1768944826.695984
1768944826703.7964,1376.5567765567764,,0,-1,1768944826.7037964
1768944826711.609,1375.091575091575,,0,-1,1768944826.711609
1768944826719.4214,1378.021978021978,,0,-1,1768944826.7194214
1768944826727.234,1378.021978021978,,0,-1,1768944826.727234
1768944826735.0464,1380.2197802197802,,0,-1,1768944826.7350464
1768944826742.859,1381.6849816849815,,0,-1,1768944826.742859
1768944826750.6714,1380.2197802197802,,0,-1,1768944826.7506714
1768944826758.484,1383.8827838827838,,0,-1,1768944826.758484
1768944826766.2964,1382.4175824175825,,0,-1,1768944826.7662964
1768944826774.109,1384.6153846153843,,0,-1,1768944826.774109
1768944826781.9214,1383.8827838827838,,0,-1,1768944826.7819214
1768944826789.734,1385.3479853479853,,0,-1,1768944826.789734
1768944826797.5464,1389.0109890109889,,0,-1,1768944826.7975464
1768944826805.359,1391.2087912087911,,0,-1,1768944826.805359
1768944826813.1714,1395.6043956043954,,0,-1,1768944826.8131714
1768944826820.984,1395.6043956043954,,0,-1,1768944826.820984
1768944826828.7964,1398.5347985347985,,0,-1,1768944826.8287964
1768944826836.609,1397.8021978021975,,0,-1,1768944826.836609
1768944826844.4214,1394.8717948717947,,0,-1,1768944826.8444214
1768944826852.234,1392.6739926739926,,0,-1,1768944826.852234
1768944826860.0464,1385.3479853479853,,0,-1,1768944826.8600464
1768944826867.859,1382.4175824175825,,0,-1,1768944826.867859
1768944826875.6714,1374.3589743589744,,0,-1,1768944826.8756714
1768944826883.484,1369.9633699633698,,0,-1,1768944826.883484
1768944826891.2964,1358.974358974359,,0,-1,1768944826.8912964
1768944826899.109,1355.311355311355,,0,-1,1768944826.899109
1768944826906.9214,1347.2527472527472,,0,-1,1768944826.9069214
1768944826914.734,1345.054945054945,,0,-1,1768944826.914734
1768944826922.5464,1339.92673992674,,0,-1,1768944826.9225464
1768944826930.359,1336.9963369963368,,0,-1,1768944826.930359
1768944826938.1714,1339.92673992674,,0,-1,1768944826.9381714
1768944826945.984,1338.4615384615383,,0,-1,1768944826.945984
1768944826953.7964,1343.5897435897434,,0,-1,1768944826.9537964
1768944826961.609,1343.5897435897434,,0,-1,1768944826.961609
1768944826969.4214,1350.18315018315,,0,-1,1768944826.9694214
1768944826977.234,1353.8461538461538,,0,-1,1768944826.977234
1768944826985.0464,1358.241758241758,,0,-1,1768944826.9850464
1768944826992.859,1361.1721611721612,,0,-1,1768944826.992859
1768944827000.6714,1364.102564102564,,0,-1,1768944827.0006714
1768944827008.484,1361.904761904762,,0,-1,1768944827.008484
1768944827016.2964,1364.8351648351647,,0,-1,1768944827.0162964
1768944827024.109,1365.5677655677655,,0,-1,1768944827.024109
1768944827031.9214,1368.4981684981683,,0,-1,1768944827.0319214
1768944827039.734,1367.032967032967,,0,-1,1768944827.039734
1768944827047.5464,1369.9633699633698,,0,-1,1768944827.0475464
1768944827055.359,1373.6263736263736,,0,-1,1768944827.055359
1768944827063.1714,1375.091575091575,,0,-1,1768944827.0631714
1768944827070.984,1382.4175824175825,,0,-1,1768944827.070984
1768944827078.7964,1392.6739926739926,,0,-1,1768944827.0787964
1768944827086.609,1397.8021978021975,,0,-1,1768944827.086609
1768944827094.4214,1405.8608058608058,,0,-1,1768944827.0944214
1768944827102.234,1406.5934065934066,,0,-1,1768944827.102234
1768944827110.0464,1413.1868131868132,,0,-1,1768944827.1100464
1768944827117.859,1416.8498168498168,,0,-1,1768944827.117859
1768944827125.6714,1423.4432234432234,,0,-1,1768944827.1256714
1768944827133.484,1429.3040293040292,,0,-1,1768944827.133484
1768944827141.2964,1435.164835164835,,0,-1,1768944827.1412964
1768944827149.109,1442.4908424908424,,0,-1,1768944827.149109
1768944827156.9214,1441.7582417582416,,0,-1,1768944827.1569214
1768944827164.734,1441.7582417582416,,0,-1,1768944827.164734
1768944827172.5464,1435.8974358974358,,0,-1,1768944827.1725464
1768944827180.359,1433.6996336996335,,0,-1,1768944827.180359
1768944827188.1714,1425.6410256410256,,0,-1,1768944827.1881714
1768944827195.984,1424.175824175824,,0,-1,1768944827.195984
1768944827203.7964,1427.106227106227,,0,-1,1768944827.2037964
1768944827211.609,1429.3040293040292,,0,-1,1768944827.211609
1768944827219.4214,1432.2344322344322,,0,-1,1768944827.2194214
1768944827227.234,1434.4322344322345,,0,-1,1768944827.227234
1768944827235.0464,1438.095238095238,,0,-1,1768944827.2350464
1768944827242.859,1441.0256410256409,,0,-1,1768944827.242859
1768944827250.6714,1441.7582417582416,,0,-1,1768944827.2506714
1768944827258.484,1441.7582417582416,,0,-1,1768944827.258484
1768944827266.2964,1437.362637362637,,0,-1,1768944827.2662964
1768944827274.109,1436.6300366300366,,0,-1,1768944827.274109
1768944827281.9214,1430.7692307692307,,0,-1,1768944827.2819214
1768944827289.734,1432.2344322344322,,0,-1,1768944827.289734
1768944827297.5464,1427.8388278388277,,0,-1,1768944827.2975464
1768944827305.359,1426.3736263736262,,0,-1,1768944827.305359
1768944827313.1714,1421.245421245421,,0,-1,1768944827.3131714
1768944827320.984,1421.245421245421,,0,-1,1768944827.320984
1768944827328.7964,1423.4432234432234,,0,-1,1768944827.3287964
1768944827336.609,1422.7106227106226,,0,-1,1768944827.336609
1768944827344.4214,1424.9084249084249,,0,-1,1768944827.3444214
1768944827352.234,1421.9780219780218,,0,-1,1768944827.352234
1768944827360.0464,1420.5128205128203,,0,-1,1768944827.3600464
1768944827367.859,1417.5824175824175,,0,-1,1768944827.367859
1768944827375.6714,1414.6520146520145,,0,-1,1768944827.3756714
1768944827383.484,1410.989010989011,,0,-1,1768944827.383484
1768944827391.2964,1409.5238095238094,,0,-1,1768944827.3912964
1768944827399.109,1402.9304029304028,,0,-1,1768944827.399109
1768944827406.9214,1400.0,,0,-1,1768944827.4069214
1768944827414.734,1395.6043956043954,,0,-1,1768944827.414734
1768944827422.5464,1391.941391941392,,0,-1,1768944827.4225464
1768944827430.359,1393.4065934065934,,0,-1,1768944827.430359
1768944827438.1714,1395.6043956043954,,0,-1,1768944827.4381714
1768944827445.984,1394.139194139194,,0,-1,1768944827.445984
1768944827453.7964,1393.4065934065934,,0,-1,1768944827.4537964
1768944827461.609,1391.941391941392,,0,-1,1768944827.461609
1768944827469.4214,1383.8827838827838,,0,-1,1768944827.4694214
1768944827477.234,1379.4871794871794,,0,-1,1768944827.477234
1768944827485.0464,1375.8241758241757,,0,-1,1768944827.4850464
1768944827492.859,1372.8937728937728,,0,-1,1768944827.492859
1768944827500.6714,1375.8241758241757,,0,-1,1768944827.5006714
1768944827508.484,1372.8937728937728,,0,-1,1768944827.508484
1768944827516.2964,1374.3589743589744,,0,-1,1768944827.5162964
1768944827524.109,1371.428571428571,,0,-1,1768944827.524109
1768944827531.9214,1372.161172161172,,0,-1,1768944827.5319214
1768944827539.734,1375.091575091575,,0,-1,1768944827.539734
1768944827547.5464,1376.5567765567764,,0,-1,1768944827.5475464
1768944827555.359,1379.4871794871794,,0,-1,1768944827.555359
1768944827563.1714,1376.5567765567764,,0,-1,1768944827.5631714
1768944827570.984,1377.2893772893772,,0,-1,1768944827.570984
1768944827578.7964,1375.8241758241757,,0,-1,1768944827.5787964
1768944827586.609,1379.4871794871794,,0,-1,1768944827.586609
1768944827594.4214,1381.6849816849815,,0,-1,1768944827.5944214
1768944827602.234,1380.952380952381,,0,-1,1768944827.602234
1768944827610.0464,1380.2197802197802,,0,-1,1768944827.6100464
1768944827617.859,1379.4871794871794,,0,-1,1768944827.617859
1768944827625.6714,1380.2197802197802,,0,-1,1768944827.6256714
1768944827633.484,1384.6153846153843,,0,-1,1768944827.633484
1768944827641.2964,1386.080586080586,,0,-1,1768944827.6412964
1768944827649.109,1390.4761904761904,,0,-1,1768944827.649109
1768944827656.9214,1389.7435897435896,,0,-1,1768944827.6569214
1768944827664.734,1391.2087912087911,,0,-1,1768944827.664734
1768944827672.5464,1387.5457875457876,,0,-1,1768944827.6725464
1768944827680.359,1385.3479853479853,,0,-1,1768944827.680359
1768944827688.1714,1375.091575091575,,0,-1,1768944827.6881714
1768944827695.984,1367.032967032967,,0,-1,1768944827.695984
1768944827703.7964,1361.904761904762,,0,-1,1768944827.7037964
1768944827711.609,1358.974358974359,,0,-1,1768944827.711609
1768944827719.4214,1356.7765567765566,,0,-1,1768944827.7194214
1768944827727.234,1351.6483516483515,,0,-1,1768944827.727234
1768944827735.0464,1353.8461538461538,,0,-1,1768944827.7350464
1768944827742.859,1354.5787545787546,,0,-1,1768944827.742859
1768944827750.6714,1356.043956043956,,0,-1,1768944827.7506714
1768944827758.484,1362.6373626373625,,0,-1,1768944827.758484
1768944827766.2964,1367.032967032967,,0,-1,1768944827.7662964
1768944827774.109,1370.6959706959706,,0,-1,1768944827.774109
1768944827781.9214,1378.021978021978,,0,-1,1768944827.7819214
1768944827789.734,1385.3479853479853,,0,-1,1768944827.789734
1768944827797.5464,1389.7435897435896,,0,-1,1768944827.7975464
1768944827805.359,1397.8021978021975,,0,-1,1768944827.805359
1768944827813.1714,1400.0,,0,-1,1768944827.8131714
1768944827820.984,1405.128205128205,,0,-1,1768944827.820984
1768944827828.7964,1407.3260073260071,,0,-1,1768944827.8287964
1768944827836.609,1405.8608058608058,,0,-1,1768944827.836609
1768944827844.4214,1411.7216117216117,,0,-1,1768944827.8444214
1768944827852.234,1415.3846153846152,,0,-1,1768944827.852234
1768944827860.0464,1424.175824175824,,0,-1,1768944827.8600464
1768944827867.859,1432.2344322344322,,0,-1,1768944827.867859
1768944827875.6714,1446.153846153846,,0,-1,1768944827.8756714
1768944827883.484,1452.014652014652,,0,-1,1768944827.883484
1768944827891.2964,1460.07326007326,,0,-1,1768944827.8912964
1768944827899.109,1463.7362637362637,,0,-1,1768944827.899109
1768944827906.9214,1461.5384615384614,,0,-1,1768944827.9069214
1768944827914.734,1460.805860805861,,0,-1,1768944827.914734
1768944827922.5464,1458.6080586080584,,0,-1,1768944827.9225464
1768944827930.359,1457.875457875458,,0,-1,1768944827.930359
1768944827938.1714,1454.9450549450548,,0,-1,1768944827.9381714
1768944827945.984,1461.5384615384614,,0,-1,1768944827.945984
1768944827953.7964,1468.131868131868,,0,-1,1768944827.9537964
1768944827961.609,1472.5274725274724,,0,-1,1768944827.961609
1768944827969.4214,1479.8534798534797,,0,-1,1768944827.9694214
1768944827977.234,1479.8534798534797,,0,-1,1768944827.977234
1768944827985.0464,1478.3882783882782,,0,-1,1768944827.9850464
1768944827992.859,1479.120879120879,,0,-1,1768944827.992859
1768944828000.6714,1476.923076923077,,0,-1,1768944828.0006714
1768944828008.484,1476.923076923077,,0,-1,1768944828.008484
1768944828016.2964,1472.5274725274724,,0,-1,1768944828.0162964
1768944828024.109,1464.4688644688645,,0,-1,1768944828.024109
1768944828031.9214,1452.014652014652,,0,-1,1768944828.0319214
1768944828039.734,1438.095238095238,,0,-1,1768944828.039734
1768944828047.5464,1426.3736263736262,,0,-1,1768944828.0475464
1768944828055.359,1419.7802197802198,,0,-1,1768944828.055359
1768944828063.1714,1410.989010989011,,0,-1,1768944828.0631714
1768944828070.984,1410.2564102564102,,0,-1,1768944828.070984
1768944828078.7964,1409.5238095238094,,0,-1,1768944828.0787964
1768944828086.609,1411.7216117216117,,0,-1,1768944828.086609
1768944828094.4214,1412.4542124542124,,0,-1,1768944828.0944214
1768944828102.234,1410.989010989011,,0,-1,1768944828.102234
1768944828110.0464,1407.3260073260071,,0,-1,1768944828.1100464
1768944828117.859,1404.3956043956043,,0,-1,1768944828.117859
1768944828125.6714,1397.8021978021975,,0,-1,1768944828.1256714
1768944828133.484,1395.6043956043954,,0,-1,1768944828.133484
1768944828141.2964,1393.4065934065934,,0,-1,1768944828.1412964
1768944828149.109,1395.6043956043954,,0,-1,1768944828.149109
1768944828156.9214,1394.139194139194,,0,-1,1768944828.1569214
1768944828164.734,1389.0109890109889,,0,-1,1768944828.164734
1768944828172.5464,1388.278388278388,,0,-1,1768944828.1725464
1768944828180.359,1383.150183150183,,0,-1,1768944828.180359
1768944828188.1714,1382.4175824175825,,0,-1,1768944828.1881714
1768944828195.984,1380.2197802197802,,0,-1,1768944828.195984
1768944828203.7964,1379.4871794871794,,0,-1,1768944828.2037964
1768944828211.609,1381.6849816849815,,0,-1,1768944828.211609
1768944828219.4214,1380.2197802197802,,0,-1,1768944828.2194214
1768944828227.234,1380.952380952381,,0,-1,1768944828.227234
1768944828235.0464,1378.7545787545787,,0,-1,1768944828.2350464
1768944828242.859,1377.2893772893772,,0,-1,1768944828.242859
1768944828250.6714,1380.2197802197802,,0,-1,1768944828.2506714
1768944828258.484,1379.4871794871794,,0,-1,1768944828.258484
1768944828266.2964,1383.150183150183,,0,-1,1768944828.2662964
1768944828274.109,1383.150183150183,,0,-1,1768944828.274109
1768944828281.9214,1386.8131868131868,,0,-1,1768944828.2819214
1768944828289.734,1391.2087912087911,,0,-1,1768944828.289734
1768944828297.5464,1390.4761904761904,,0,-1,1768944828.2975464
1768944828305.359,1392.6739926739926,,0,-1,1768944828.305359
1768944828313.1714,1390.4761904761904,,0,-1,1768944828.3131714
1768944828320.984,1390.4761904761904,,0,-1,1768944828.320984
1768944828328.7964,1384.6153846153843,,0,-1,1768944828.3287964
1768944828336.609,1383.8827838827838,,0,-1,1768944828.336609
1768944828344.4214,1378.7545787545787,,0,-1,1768944828.3444214
1768944828352.234,1372.161172161172,,0,-1,1768944828.352234
1768944828360.0464,1372.161172161172,,0,-1,1768944828.3600464
1768944828367.859,1366.3003663003662,,0,-1,1768944828.367859
1768944828375.6714,1364.8351648351647,,0,-1,1768944828.3756714
1768944828383.484,1356.7765567765566,,0,-1,1768944828.383484
1768944828391.2964,1353.113553113553,,0,-1,1768944828.3912964
1768944828399.109,1345.7875457875457,,0,-1,1768944828.399109
1768944828406.9214,1345.7875457875457,,0,-1,1768944828.4069214
1768944828414.734,1342.124542124542,,0,-1,1768944828.414734
1768944828422.5464,1338.4615384615383,,0,-1,1768944828.4225464
1768944828430.359,1338.4615384615383,,0,-1,1768944828.430359
1768944828438.1714,1332.6007326007325,,0,-1,1768944828.4381714
1768944828445.984,1326.739926739927,,0,-1,1768944828.445984
1768944828453.7964,1318.6813186813183,,0,-1,1768944828.4537964
1768944828461.609,1314.2857142857142,,0,-1,1768944828.461609
1768944828469.4214,1317.216117216117,,0,-1,1768944828.4694214
1768944828477.234,1326.007326007326,,0,-1,1768944828.477234
1768944828485.0464,1341.3919413919414,,0,-1,1768944828.4850464
1768944828492.859,1353.8461538461538,,0,-1,1768944828.492859
1768944828500.6714,1366.3003663003662,,0,-1,1768944828.5006714
1768944828508.484,1373.6263736263736,,1,2,1768944828.508484
1768944828516.2964,1387.5457875457876,,1,2,1768944828.5162964
1768944828524.109,1394.8717948717947,,1,2,1768944828.524109
1768944828531.9214,1407.3260073260071,,1,2,1768944828.5319214
1768944828539.734,1418.3150183150185,,1,2,1768944828.539734
1768944828547.5464,1434.4322344322345,,1,2,1768944828.5475464
1768944828555.359,1448.3516483516482,,1,2,1768944828.555359
1768944828563.1714,1455.6776556776556,,1,2,1768944828.5631714
1768944828570.984,1457.142857142857,,1,2,1768944828.570984
1768944828578.7964,1460.07326007326,,1,2,1768944828.5787964
1768944828586.609,1460.805860805861,,1,2,1768944828.586609
1768944828594.4214,1457.875457875458,,1,2,1768944828.5944214
1768944828602.234,1449.8168498168498,,1,2,1768944828.602234
1768944828610.0464,1452.014652014652,,1,2,1768944828.6100464
1768944828617.859,1452.014652014652,,1,2,1768944828.617859
1768944828625.6714,1455.6776556776556,,1,2,1768944828.6256714
1768944828633.484,1455.6776556776556,,1,2,1768944828.633484
1768944828641.2964,1460.07326007326,,1,2,1768944828.6412964
1768944828649.109,1461.5384615384614,,1,2,1768944828.649109
1768944828656.9214,1462.2710622710622,,1,2,1768944828.6569214
1768944828664.734,1464.4688644688645,,1,2,1768944828.664734
1768944828672.5464,1458.6080586080584,,1,2,1768944828.6725464
1768944828680.359,1452.014652014652,,1,2,1768944828.680359
1768944828688.1714,1446.8864468864467,,1,2,1768944828.6881714
1768944828695.984,1440.29304029304,,1,2,1768944828.695984
1768944828703.7964,1438.8278388278388,,1,2,1768944828.7037964
1768944828711.609,1439.5604395604394,,1,2,1768944828.711609
1768944828719.4214,1435.164835164835,,1,2,1768944828.7194214
1768944828727.234,1434.4322344322345,,1,2,1768944828.727234
1768944828735.0464,1432.2344322344322,,1,2,1768944828.7350464
1768944828742.859,1428.5714285714284,,1,2,1768944828.742859
1768944828750.6714,1428.5714285714284,,1,2,1768944828.7506714
1768944828758.484,1427.8388278388277,,1,2,1768944828.758484
1768944828766.2964,1421.9780219780218,,1,2,1768944828.7662964
1768944828774.109,1417.5824175824175,,1,2,1768944828.774109
1768944828781.9214,1412.4542124542124,,1,2,1768944828.7819214
1768944828789.734,1405.128205128205,,1,2,1768944828.789734
1768944828797.5464,1402.9304029304028,,1,2,1768944828.7975464
1768944828805.359,1401.4652014652013,,1,2,1768944828.805359
1768944828813.1714,1403.6630036630036,,1,2,1768944828.8131714
1768944828820.984,1407.3260073260071,,1,2,1768944828.820984
1768944828828.7964,1410.989010989011,,1,2,1768944828.8287964
1768944828836.609,1410.989010989011,,1,2,1768944828.836609
1768944828844.4214,1410.989010989011,,1,2,1768944828.8444214
1768944828852.234,1410.2564102564102,,1,2,1768944828.852234
1768944828860.0464,1402.197802197802,,1,2,1768944828.8600464
1768944828867.859,1396.3369963369962,,1,2,1768944828.867859
1768944828875.6714,1388.278388278388,,1,2,1768944828.8756714
1768944828883.484,1383.8827838827838,,1,2,1768944828.883484
1768944828891.2964,1383.8827838827838,,1,2,1768944828.8912964
1768944828899.109,1389.7435897435896,,1,2,1768944828.899109
1768944828906.9214,1390.4761904761904,,1,2,1768944828.9069214
1768944828914.734,1394.139194139194,,1,2,1768944828.914734
1768944828922.5464,1394.8717948717947,,1,2,1768944828.9225464
1768944828930.359,1394.8717948717947,,1,2,1768944828.930359
1768944828938.1714,1393.4065934065934,,1,2,1768944828.9381714
1768944828945.984,1393.4065934065934,,1,2,1768944828.945984
1768944828953.7964,1387.5457875457876,,1,2,1768944828.9537964
1768944828961.609,1376.5567765567764,,1,2,1768944828.961609
1768944828969.4214,1367.032967032967,,1,2,1768944828.9694214
1768944828977.234,1358.974358974359,,1,2,1768944828.977234
1768944828985.0464,1351.6483516483515,,1,2,1768944828.9850464
1768944828992.859,1347.2527472527472,,1,2,1768944828.992859
1768944829000.6714,1346.5201465201465,,1,2,1768944829.0006714
1768944829008.484,1345.054945054945,,1,2,1768944829.008484
1768944829016.2964,1349.4505494505493,,1,2,1768944829.0162964
1768944829024.109,1351.6483516483515,,1,2,1768944829.024109
1768944829031.9214,1351.6483516483515,,1,2,1768944829.0319214
1768944829039.734,1355.311355311355,,1,2,1768944829.039734
1768944829047.5464,1356.7765567765566,,1,2,1768944829.0475464
1768944829055.359,1352.3809523809523,,1,2,1768944829.055359
1768944829063.1714,1347.2527472527472,,1,2,1768944829.0631714
1768944829070.984,1352.3809523809523,,1,2,1768944829.070984
1768944829078.7964,1356.7765567765566,,1,2,1768944829.0787964
1768944829086.609,1364.102564102564,,1,2,1768944829.086609
1768944829094.4214,1370.6959706959706,,1,2,1768944829.0944214
1768944829102.234,1372.8937728937728,,1,2,1768944829.102234
1768944829110.0464,1372.161172161172,,1,2,1768944829.1100464
1768944829117.859,1372.161172161172,,1,2,1768944829.117859
1768944829125.6714,1369.9633699633698,,1,2,1768944829.1256714
1768944829133.484,1367.7655677655678,,1,2,1768944829.133484
1768944829141.2964,1364.102564102564,,1,2,1768944829.1412964
1768944829149.109,1361.1721611721612,,1,2,1768944829.149109
1768944829156.9214,1358.974358974359,,1,2,1768944829.1569214
1768944829164.734,1360.4395604395604,,1,2,1768944829.164734
1768944829172.5464,1361.1721611721612,,1,2,1768944829.1725464
1768944829180.359,1364.102564102564,,1,2,1768944829.180359
1768944829188.1714,1369.9633699633698,,1,2,1768944829.1881714
1768944829195.984,1378.7545787545787,,1,2,1768944829.195984
1768944829203.7964,1389.0109890109889,,1,2,1768944829.2037964
1768944829211.609,1400.0,,1,2,1768944829.211609
1768944829219.4214,1411.7216117216117,,1,2,1768944829.2194214
1768944829227.234,1420.5128205128203,,1,2,1768944829.227234
1768944829235.0464,1427.8388278388277,,1,2,1768944829.2350464
1768944829242.859,1432.9670329670328,,1,2,1768944829.242859
1768944829250.6714,1438.8278388278388,,1,2,1768944829.2506714
1768944829258.484,1447.6190476190477,,1,2,1768944829.258484
1768944829266.2964,1454.212454212454,,1,2,1768944829.2662964
1768944829274.109,1457.875457875458,,1,2,1768944829.274109
1768944829281.9214,1462.2710622710622,,1,2,1768944829.2819214
1768944829289.734,1468.131868131868,,1,2,1768944829.289734
1768944829297.5464,1473.260073260073,,1,2,1768944829.2975464
1768944829305.359,1476.190476190476,,1,2,1768944829.305359
1768944829313.1714,1477.6556776556777,,1,2,1768944829.3131714
1768944829320.984,1482.051282051282,,1,2,1768944829.320984
1768944829328.7964,1484.9816849816848,,1,2,1768944829.3287964
1768944829336.609,1486.4468864468863,,1,2,1768944829.336609
1768944829344.4214,1482.7838827838827,,1,2,1768944829.3444214
1768944829352.234,1480.5860805860805,,1,2,1768944829.352234
1768944829360.0464,1478.3882783882782,,1,2,1768944829.3600464
1768944829367.859,1473.992673992674,,1,2,1768944829.367859
1768944829375.6714,1468.8644688644688,,1,2,1768944829.3756714
1768944829383.484,1460.805860805861,,1,2,1768944829.383484
1768944829391.2964,1448.3516483516482,,1,2,1768944829.3912964
1768944829399.109,1434.4322344322345,,1,2,1768944829.399109
1768944829406.9214,1420.5128205128203,,1,2,1768944829.4069214
1768944829414.734,1408.7912087912086,,1,2,1768944829.414734
1768944829422.5464,1399.2673992673992,,1,2,1768944829.4225464
1768944829430.359,1390.4761904761904,,1,2,1768944829.430359
1768944829438.1714,1380.952380952381,,1,2,1768944829.4381714
1768944829445.984,1373.6263736263736,,1,2,1768944829.445984
1768944829453.7964,1369.9633699633698,,1,2,1768944829.4537964
1768944829461.609,1371.428571428571,,1,2,1768944829.461609
1768944829469.4214,1372.8937728937728,,1,2,1768944829.4694214
1768944829477.234,1371.428571428571,,1,2,1768944829.477234
1768944829485.0464,1376.5567765567764,,1,2,1768944829.4850464
1768944829492.859,1380.952380952381,,1,2,1768944829.492859
1768944829500.6714,1384.6153846153843,,1,2,1768944829.5006714
1768944829508.484,1386.8131868131868,,1,2,1768944829.508484
1768944829516.2964,1388.278388278388,,1,2,1768944829.5162964
1768944829524.109,1387.5457875457876,,1,2,1768944829.524109
1768944829531.9214,1388.278388278388,,1,2,1768944829.5319214
1768944829539.734,1391.2087912087911,,1,2,1768944829.539734
1768944829547.5464,1395.6043956043954,,1,2,1768944829.5475464
1768944829555.359,1397.069597069597,,1,2,1768944829.555359
1768944829563.1714,1396.3369963369962,,1,2,1768944829.5631714
1768944829570.984,1394.139194139194,,1,2,1768944829.570984
1768944829578.7964,1392.6739926739926,,1,2,1768944829.5787964
1768944829586.609,1390.4761904761904,,1,2,1768944829.586609
1768944829594.4214,1389.0109890109889,,1,2,1768944829.5944214
1768944829602.234,1387.5457875457876,,1,2,1768944829.602234
1768944829610.0464,1391.2087912087911,,1,2,1768944829.6100464
1768944829617.859,1387.5457875457876,,1,2,1768944829.617859
1768944829625.6714,1382.4175824175825,,1,2,1768944829.6256714
1768944829633.484,1378.021978021978,,1,2,1768944829.633484
1768944829641.2964,1374.3589743589744,,1,2,1768944829.6412964
1768944829649.109,1371.428571428571,,1,2,1768944829.649109
1768944829656.9214,1369.9633699633698,,1,2,1768944829.6569214
1768944829664.734,1368.4981684981683,,1,2,1768944829.664734
1768944829672.5464,1367.7655677655678,,1,2,1768944829.6725464
1768944829680.359,1368.4981684981683,,1,2,1768944829.680359
1768944829688.1714,1370.6959706959706,,1,2,1768944829.6881714
1768944829695.984,1374.3589743589744,,1,2,1768944829.695984
1768944829703.7964,1378.7545787545787,,1,2,1768944829.7037964
1768944829711.609,1383.150183150183,,1,2,1768944829.711609
1768944829719.4214,1384.6153846153843,,1,2,1768944829.7194214
1768944829727.234,1381.6849816849815,,1,2,1768944829.727234
1768944829735.0464,1376.5567765567764,,1,2,1768944829.7350464
1768944829742.859,1368.4981684981683,,1,2,1768944829.742859
1768944829750.6714,1360.4395604395604,,1,2,1768944829.7506714
1768944829758.484,1354.5787545787546,,1,2,1768944829.758484
1768944829766.2964,1351.6483516483515,,1,2,1768944829.7662964
1768944829774.109,1352.3809523809523,,1,2,1768944829.774109
1768944829781.9214,1356.043956043956,,1,2,1768944829.7819214
1768944829789.734,1364.102564102564,,1,2,1768944829.789734
1768944829797.5464,1373.6263736263736,,1,2,1768944829.7975464
1768944829805.359,1383.8827838827838,,1,2,1768944829.805359
1768944829813.1714,1394.139194139194,,1,2,1768944829.8131714
1768944829820.984,1403.6630036630036,,1,2,1768944829.820984
1768944829828.7964,1413.9194139194135,,1,2,1768944829.8287964
1768944829836.609,1424.9084249084249,,1,2,1768944829.836609
1768944829844.4214,1433.6996336996335,,1,2,1768944829.8444214
1768944829852.234,1442.4908424908424,,1,2,1768944829.852234
1768944829860.0464,1447.6190476190477,,1,2,1768944829.8600464
1768944829867.859,1452.7472527472526,,1,2,1768944829.867859
1768944829875.6714,1451.2820512820513,,1,2,1768944829.8756714
1768944829883.484,1452.014652014652,,1,2,1768944829.883484
1768944829891.2964,1452.014652014652,,1,2,1768944829.8912964
1768944829899.109,1454.212454212454,,1,2,1768944829.899109
1768944829906.9214,1457.142857142857,,1,2,1768944829.9069214
1768944829914.734,1461.5384615384614,,1,2,1768944829.914734
1768944829922.5464,1463.003663003663,,1,2,1768944829.9225464
1768944829930.359,1463.7362637362637,,1,2,1768944829.930359
1768944829938.1714,1465.201465201465,,1,2,1768944829.9381714
1768944829945.984,1465.9340659340658,,1,2,1768944829.945984
1768944829953.7964,1465.9340659340658,,1,2,1768944829.9537964
1768944829961.609,1464.4688644688645,,1,2,1768944829.961609
1768944829969.4214,1463.7362637362637,,1,2,1768944829.9694214
1768944829977.234,1460.07326007326,,1,2,1768944829.977234
1768944829985.0464,1453.479853479853,,1,2,1768944829.9850464
1768944829992.859,1445.4212454212454,,1,2,1768944829.992859
1768944830000.6714,1438.095238095238,,1,2,1768944830.0006714
1768944830008.484,1432.2344322344322,,1,2,1768944830.008484
1768944830016.2964,1425.6410256410256,,1,2,1768944830.0162964
1768944830024.109,1420.5128205128203,,1,2,1768944830.024109
1768944830031.9214,1413.9194139194135,,1,2,1768944830.0319214
1768944830039.734,1408.7912087912086,,1,2,1768944830.039734
1768944830047.5464,1406.5934065934066,,1,2,1768944830.0475464
1768944830055.359,1408.058608058608,,1,2,1768944830.055359
1768944830063.1714,1410.2564102564102,,1,2,1768944830.0631714
1768944830070.984,1410.989010989011,,1,2,1768944830.070984
1768944830078.7964,1412.4542124542124,,1,2,1768944830.0787964
1768944830086.609,1412.4542124542124,,1,2,1768944830.086609
1768944830094.4214,1411.7216117216117,,1,2,1768944830.0944214
1768944830102.234,1408.7912087912086,,1,2,1768944830.102234
1768944830110.0464,1403.6630036630036,,1,2,1768944830.1100464
1768944830117.859,1394.139194139194,,1,2,1768944830.117859
1768944830125.6714,1386.8131868131868,,1,2,1768944830.1256714
1768944830133.484,1383.8827838827838,,1,2,1768944830.133484
1768944830141.2964,1386.080586080586,,1,2,1768944830.1412964
1768944830149.109,1388.278388278388,,1,2,1768944830.149109
1768944830156.9214,1391.941391941392,,1,2,1768944830.1569214
1768944830164.734,1392.6739926739926,,1,2,1768944830.164734
1768944830172.5464,1390.4761904761904,,1,2,1768944830.1725464
1768944830180.359,1386.8131868131868,,1,2,1768944830.180359
1768944830188.1714,1383.150183150183,,1,2,1768944830.1881714
1768944830195.984,1380.2197802197802,,1,2,1768944830.195984
1768944830203.7964,1377.2893772893772,,1,2,1768944830.2037964
1768944830211.609,1376.5567765567764,,1,2,1768944830.211609
1768944830219.4214,1373.6263736263736,,1,2,1768944830.2194214
1768944830227.234,1370.6959706959706,,1,2,1768944830.227234
1768944830235.0464,1369.9633699633698,,1,2,1768944830.2350464
1768944830242.859,1366.3003663003662,,1,2,1768944830.242859
1768944830250.6714,1362.6373626373625,,1,2,1768944830.2506714
1768944830258.484,1360.4395604395604,,1,2,1768944830.258484
1768944830266.2964,1358.974358974359,,1,2,1768944830.2662964
1768944830274.109,1358.974358974359,,1,2,1768944830.274109
1768944830281.9214,1358.974358974359,,1,2,1768944830.2819214
1768944830289.734,1358.974358974359,,1,2,1768944830.289734
1768944830297.5464,1357.5091575091574,,1,2,1768944830.2975464
1768944830305.359,1355.311355311355,,1,2,1768944830.305359
1768944830313.1714,1355.311355311355,,1,2,1768944830.3131714
1768944830320.984,1356.7765567765566,,1,2,1768944830.320984
1768944830328.7964,1361.1721611721612,,1,2,1768944830.3287964
1768944830336.609,1367.7655677655678,,1,2,1768944830.336609
1768944830344.4214,1367.7655677655678,,1,2,1768944830.3444214
1768944830352.234,1370.6959706959706,,1,2,1768944830.352234
1768944830360.0464,1375.8241758241757,,1,2,1768944830.3600464
1768944830367.859,1382.4175824175825,,1,2,1768944830.367859
1768944830375.6714,1385.3479853479853,,1,2,1768944830.3756714
1768944830383.484,1385.3479853479853,,1,2,1768944830.383484
1768944830391.2964,1383.150183150183,,1,2,1768944830.3912964
1768944830399.109,1380.952380952381,,1,2,1768944830.399109
1768944830406.9214,1378.7545787545787,,1,2,1768944830.4069214
1768944830414.734,1381.6849816849815,,1,2,1768944830.414734
1768944830422.5464,1386.080586080586,,1,2,1768944830.4225464
1768944830430.359,1391.941391941392,,1,2,1768944830.430359
1768944830438.1714,1399.2673992673992,,1,2,1768944830.4381714
1768944830445.984,1405.128205128205,,1,2,1768944830.445984
1768944830453.7964,1413.9194139194135,,1,2,1768944830.4537964
1768944830461.609,1424.175824175824,,1,2,1768944830.461609
1768944830469.4214,1438.095238095238,,1,2,1768944830.4694214
1768944830477.234,1450.5494505494505,,1,2,1768944830.477234
1768944830485.0464,1465.201465201465,,1,2,1768944830.4850464
1768944830492.859,1477.6556776556777,,1,2,1768944830.492859
1768944830500.6714,1486.4468864468863,,1,2,1768944830.5006714
1768944830508.484,1492.3076923076922,,1,2,1768944830.508484
1768944830516.2964,1496.7032967032967,,1,2,1768944830.5162964
1768944830524.109,1497.4358974358972,,1,2,1768944830.524109
1768944830531.9214,1491.5750915750914,,1,2,1768944830.5319214
1768944830539.734,1485.7142857142856,,1,2,1768944830.539734
1768944830547.5464,1480.5860805860805,,1,2,1768944830.5475464
