Shimmer_6815_Timestamp_Unix_CAL,Shimmer_6815_PPG_A13_CAL,Unnamed: 2,inhale,inhale_id,epoch_sec
1768871814909.8816,73.99267399267399,,0,-1,1768871814.9098816
1768871814917.694,194.8717948717949,,0,-1,1768871814.917694
1768871814925.5066,334.7985347985348,,0,-1,1768871814.9255066
1768871814933.319,469.5970695970696,,0,-1,1768871814.933319
1768871814941.1316,602.1978021978022,,0,-1,1768871814.9411316
1768871814948.944,723.076923076923,,0,-1,1768871814.948944
1768871814956.7566,832.9670329670329,,0,-1,1768871814.9567566
1768871814964.569,931.1355311355312,,0,-1,1768871814.964569
1768871814972.3816,1019.0476190476188,,0,-1,1768871814.9723816
1768871814980.194,1090.10989010989,,0,-1,1768871814.980194
1768871814988.0066,1140.6593406593406,,0,-1,1768871814.9880066
1768871814995.819,1181.6849816849815,,0,-1,1768871814.995819
1768871815003.6316,1219.7802197802198,,0,-1,1768871815.0036316
1768871815011.444,1249.8168498168498,,0,-1,1768871815.011444
1768871815019.2566,1272.5274725274724,,0,-1,1768871815.0192566
1768871815027.069,1286.4468864468863,,0,-1,1768871815.027069
1768871815034.8816,1296.7032967032967,,0,-1,1768871815.0348816
1768871815042.694,1302.5641025641023,,0,-1,1768871815.042694
1768871815050.5066,1303.2967032967033,,0,-1,1768871815.0505066
1768871815058.319,1299.6336996336995,,0,-1,1768871815.058319
1768871815066.1316,1290.8424908424909,,0,-1,1768871815.0661316
1768871815073.944,1281.3186813186812,,0,-1,1768871815.073944
1768871815081.7566,1268.131868131868,,0,-1,1768871815.0817566
1768871815089.569,1254.9450549450548,,0,-1,1768871815.089569
1768871815097.3816,1244.688644688645,,0,-1,1768871815.0973816
1768871815105.194,1235.164835164835,,0,-1,1768871815.105194
1768871815113.0066,1227.8388278388277,,0,-1,1768871815.1130066
1768871815120.819,1220.5128205128203,,0,-1,1768871815.120819
1768871815128.6316,1216.117216117216,,0,-1,1768871815.1286316
1768871815136.444,1216.117216117216,,0,-1,1768871815.136444
1768871815144.2566,1213.9194139194135,,0,-1,1768871815.1442566
1768871815152.069,1210.2564102564102,,0,-1,1768871815.152069
1768871815159.8816,1204.3956043956043,,0,-1,1768871815.1598816
1768871815167.694,1201.4652014652013,,0,-1,1768871815.167694
1768871815175.5066,1200.7326007326008,,0,-1,1768871815.1755066
1768871815183.319,1203.6630036630036,,0,-1,1768871815.183319
1768871815191.1316,1204.3956043956043,,0,-1,1768871815.1911316
1768871815198.944,1203.6630036630036,,0,-1,1768871815.198944
1768871815206.7566,1199.2673992673992,,0,-1,1768871815.2067566
1768871815214.569,1197.8021978021975,,0,-1,1768871815.214569
1768871815222.3816,1196.3369963369962,,0,-1,1768871815.2223816
1768871815230.194,1193.4065934065934,,0,-1,1768871815.230194
1768871815238.0066,1188.278388278388,,0,-1,1768871815.2380066
1768871815245.819,1178.021978021978,,0,-1,1768871815.245819
1768871815253.6316,1175.0915750915751,,0,-1,1768871815.2536316
1768871815261.444,1171.428571428571,,0,-1,1768871815.261444
1768871815269.2566,1176.5567765567764,,0,-1,1768871815.2692566
1768871815277.069,1189.0109890109889,,0,-1,1768871815.277069
1768871815284.8816,1217.5824175824175,,0,-1,1768871815.2848816
1768871815292.694,1254.212454212454,,0,-1,1768871815.292694
1768871815300.5066,1304.0293040293038,,0,-1,1768871815.3005066
1768871815308.319,1353.8461538461538,,0,-1,1768871815.308319
1768871815316.1316,1410.989010989011,,0,-1,1768871815.3161316
1768871815323.944,1466.6666666666663,,0,-1,1768871815.323944
1768871815331.7566,1519.4139194139193,,0,-1,1768871815.3317566
1768871815339.569,1572.8937728937728,,0,-1,1768871815.339569
1768871815347.3816,1617.5824175824175,,0,-1,1768871815.3473816
1768871815355.194,1655.6776556776556,,0,-1,1768871815.355194
1768871815363.0066,1684.249084249084,,0,-1,1768871815.3630066
1768871815370.819,1700.3663003663005,,0,-1,1768871815.370819
1768871815378.6316,1715.7509157509155,,0,-1,1768871815.3786316
1768871815386.444,1719.4139194139193,,0,-1,1768871815.386444
1768871815394.2566,1722.3443223443223,,0,-1,1768871815.3942566
1768871815402.069,1714.2857142857142,,0,-1,1768871815.402069
1768871815409.8816,1708.4249084249084,,0,-1,1768871815.4098816
1768871815417.694,1695.2380952380952,,0,-1,1768871815.417694
1768871815425.5066,1687.9120879120878,,0,-1,1768871815.4255066
1768871815433.319,1669.5970695970695,,0,-1,1768871815.433319
1768871815441.1316,1652.0146520146518,,0,-1,1768871815.4411316
1768871815448.944,1630.03663003663,,0,-1,1768871815.448944
1768871815456.7566,1605.8608058608058,,0,-1,1768871815.4567566
1768871815464.569,1580.9523809523807,,0,-1,1768871815.464569
1768871815472.3816,1559.7069597069597,,0,-1,1768871815.4723816
1768871815480.194,1533.3333333333333,,0,-1,1768871815.480194
1768871815488.0066,1506.227106227106,,0,-1,1768871815.4880066
1768871815495.819,1482.051282051282,,0,-1,1768871815.495819
1768871815503.6316,1454.212454212454,,0,-1,1768871815.5036316
1768871815511.444,1428.5714285714284,,0,-1,1768871815.511444
1768871815519.2566,1410.989010989011,,0,-1,1768871815.5192566
1768871815527.069,1398.5347985347985,,0,-1,1768871815.527069
1768871815534.8816,1394.139194139194,,0,-1,1768871815.5348816
1768871815542.694,1402.9304029304028,,0,-1,1768871815.542694
1768871815550.5066,1417.5824175824175,,0,-1,1768871815.5505066
1768871815558.319,1435.164835164835,,0,-1,1768871815.558319
1768871815566.1316,1454.212454212454,,0,-1,1768871815.5661316
1768871815573.944,1474.7252747252746,,0,-1,1768871815.573944
1768871815581.7566,1489.3772893772891,,0,-1,1768871815.5817566
1768871815589.569,1498.9010989010987,,0,-1,1768871815.589569
1768871815597.3816,1504.0293040293038,,0,-1,1768871815.5973816
1768871815605.194,1512.087912087912,,0,-1,1768871815.605194
1768871815613.0066,1520.8791208791208,,0,-1,1768871815.6130066
1768871815620.819,1529.6703296703297,,0,-1,1768871815.620819
1768871815628.6316,1542.857142857143,,0,-1,1768871815.6286316
1768871815636.444,1550.9157509157508,,0,-1,1768871815.636444
1768871815644.2566,1556.7765567765566,,0,-1,1768871815.6442566
1768871815652.069,1565.5677655677655,,0,-1,1768871815.652069
1768871815659.8816,1568.4981684981683,,0,-1,1768871815.6598816
1768871815667.694,1581.6849816849815,,0,-1,1768871815.667694
1768871815675.5066,1606.5934065934066,,0,-1,1768871815.6755066
1768871815683.319,1634.4322344322345,,0,-1,1768871815.683319
1768871815691.1316,1659.3406593406592,,0,-1,1768871815.6911316
1768871815698.944,1668.8644688644688,,0,-1,1768871815.698944
1768871815706.7566,1654.212454212454,,0,-1,1768871815.7067566
1768871815714.569,1618.3150183150185,,0,-1,1768871815.714569
1768871815722.3816,1567.032967032967,,0,-1,1768871815.7223816
1768871815730.194,1515.7509157509155,,0,-1,1768871815.730194
1768871815738.0066,1468.131868131868,,0,-1,1768871815.7380066
1768871815745.819,1422.7106227106226,,0,-1,1768871815.745819
1768871815753.6316,1383.150183150183,,0,-1,1768871815.7536316
1768871815761.444,1350.18315018315,,0,-1,1768871815.761444
1768871815769.2566,1323.076923076923,,0,-1,1768871815.7692566
1768871815777.069,1298.168498168498,,0,-1,1768871815.777069
1768871815784.8816,1273.992673992674,,0,-1,1768871815.7848816
1768871815792.694,1247.6190476190477,,0,-1,1768871815.792694
1768871815800.5066,1221.245421245421,,0,-1,1768871815.8005066
1768871815808.319,1195.6043956043954,,0,-1,1768871815.808319
1768871815816.1316,1175.8241758241757,,0,-1,1768871815.8161316
1768871815823.944,1156.7765567765566,,0,-1,1768871815.823944
1768871815831.7566,1141.3919413919414,,0,-1,1768871815.8317566
1768871815839.569,1132.6007326007325,,0,-1,1768871815.839569
1768871815847.3816,1128.2051282051282,,0,-1,1768871815.8473816
1768871815855.194,1130.4029304029302,,0,-1,1768871815.855194
1768871815863.0066,1142.857142857143,,0,-1,1768871815.8630066
1768871815870.819,1164.102564102564,,0,-1,1768871815.870819
1768871815878.6316,1196.3369963369962,,0,-1,1768871815.8786316
1768871815886.444,1241.0256410256409,,0,-1,1768871815.886444
1768871815894.2566,1289.3772893772891,,0,-1,1768871815.8942566
1768871815902.069,1340.6593406593406,,0,-1,1768871815.902069
1768871815909.8816,1393.4065934065934,,0,-1,1768871815.9098816
1768871815917.694,1443.956043956044,,0,-1,1768871815.917694
1768871815925.5066,1489.3772893772891,,0,-1,1768871815.9255066
1768871815933.319,1528.2051282051282,,0,-1,1768871815.933319
1768871815941.1316,1558.241758241758,,0,-1,1768871815.9411316
1768871815948.944,1584.6153846153843,,0,-1,1768871815.948944
1768871815956.7566,1610.2564102564102,,0,-1,1768871815.9567566
1768871815964.569,1632.2344322344322,,0,-1,1768871815.964569
1768871815972.3816,1649.8168498168498,,0,-1,1768871815.9723816
1768871815980.194,1661.5384615384614,,0,-1,1768871815.980194
1768871815988.0066,1671.0622710622708,,0,-1,1768871815.9880066
1768871815995.819,1676.190476190476,,0,-1,1768871815.995819
1768871816003.6316,1675.4578754578754,,0,-1,1768871816.0036316
1768871816011.444,1667.3992673992673,,0,-1,1768871816.011444
1768871816019.2566,1649.8168498168498,,0,-1,1768871816.0192566
1768871816027.069,1627.8388278388277,,0,-1,1768871816.027069
1768871816034.8816,1603.6630036630036,,0,-1,1768871816.0348816
1768871816042.694,1578.021978021978,,0,-1,1768871816.042694
1768871816050.5066,1547.2527472527472,,0,-1,1768871816.0505066
1768871816058.319,1511.3553113553112,,0,-1,1768871816.058319
1768871816066.1316,1473.992673992674,,0,-1,1768871816.0661316
1768871816073.944,1439.5604395604394,,0,-1,1768871816.073944
1768871816081.7566,1405.128205128205,,0,-1,1768871816.0817566
1768871816089.569,1371.428571428571,,0,-1,1768871816.089569
1768871816097.3816,1342.857142857143,,0,-1,1768871816.0973816
1768871816105.194,1322.3443223443223,,0,-1,1768871816.105194
1768871816113.0066,1304.0293040293038,,0,-1,1768871816.1130066
1768871816120.819,1285.7142857142856,,0,-1,1768871816.120819
1768871816128.6316,1271.062271062271,,0,-1,1768871816.1286316
1768871816136.444,1254.212454212454,,0,-1,1768871816.136444
1768871816144.2566,1235.164835164835,,0,-1,1768871816.1442566
1768871816152.069,1219.047619047619,,0,-1,1768871816.152069
1768871816159.8816,1198.5347985347985,,0,-1,1768871816.1598816
1768871816167.694,1185.3479853479853,,0,-1,1768871816.167694
1768871816175.5066,1178.021978021978,,0,-1,1768871816.1755066
1768871816183.319,1179.4871794871794,,0,-1,1768871816.183319
1768871816191.1316,1182.4175824175825,,0,-1,1768871816.1911316
1768871816198.944,1184.6153846153843,,0,-1,1768871816.198944
1768871816206.7566,1192.6739926739926,,0,-1,1768871816.2067566
1768871816214.569,1197.8021978021975,,0,-1,1768871816.214569
1768871816222.3816,1209.5238095238094,,0,-1,1768871816.2223816
1768871816230.194,1220.5128205128203,,0,-1,1768871816.230194
1768871816238.0066,1232.967032967033,,0,-1,1768871816.2380066
1768871816245.819,1246.153846153846,,0,-1,1768871816.245819
1768871816253.6316,1251.2820512820513,,0,-1,1768871816.2536316
1768871816261.444,1250.5494505494505,,0,-1,1768871816.261444
1768871816269.2566,1249.8168498168498,,0,-1,1768871816.2692566
1768871816277.069,1245.4212454212454,,0,-1,1768871816.277069
1768871816284.8816,1242.4908424908424,,0,-1,1768871816.2848816
1768871816292.694,1235.164835164835,,0,-1,1768871816.292694
1768871816300.5066,1231.5018315018317,,0,-1,1768871816.3005066
1768871816308.319,1230.03663003663,,0,-1,1768871816.308319
1768871816316.1316,1225.6410256410256,,1,1,1768871816.3161316
1768871816323.944,1226.3736263736264,,1,1,1768871816.323944
1768871816331.7566,1221.245421245421,,1,1,1768871816.3317566
1768871816339.569,1213.9194139194135,,1,1,1768871816.339569
1768871816347.3816,1197.8021978021975,,1,1,1768871816.3473816
1768871816355.194,1183.8827838827838,,1,1,1768871816.355194
1768871816363.0066,1167.032967032967,,1,1,1768871816.3630066
1768871816370.819,1156.7765567765566,,1,1,1768871816.370819
1768871816378.6316,1150.9157509157508,,1,1,1768871816.3786316
1768871816386.444,1148.7179487179487,,1,1,1768871816.386444
1768871816394.2566,1149.4505494505493,,1,1,1768871816.3942566
1768871816402.069,1159.7069597069597,,1,1,1768871816.402069
1768871816409.8816,1180.952380952381,,1,1,1768871816.4098816
1768871816417.694,1208.058608058608,,1,1,1768871816.417694
1768871816425.5066,1238.095238095238,,1,1,1768871816.4255066
1768871816433.319,1271.7948717948716,,1,1,1768871816.433319
1768871816441.1316,1312.8205128205127,,1,1,1768871816.4411316
1768871816448.944,1349.4505494505493,,1,1,1768871816.448944
1768871816456.7566,1386.8131868131868,,1,1,1768871816.4567566
1768871816464.569,1418.3150183150185,,1,1,1768871816.464569
1768871816472.3816,1447.6190476190477,,1,1,1768871816.4723816
1768871816480.194,1473.992673992674,,1,1,1768871816.480194
1768871816488.0066,1498.168498168498,,1,1,1768871816.4880066
1768871816495.819,1517.216117216117,,1,1,1768871816.495819
1768871816503.6316,1527.4725274725274,,1,1,1768871816.5036316
1768871816511.444,1531.8681318681315,,1,1,1768871816.511444
1768871816519.2566,1528.2051282051282,,1,1,1768871816.5192566
1768871816527.069,1520.8791208791208,,1,1,1768871816.527069
1768871816534.8816,1512.087912087912,,1,1,1768871816.5348816
1768871816542.694,1500.3663003663005,,1,1,1768871816.542694
1768871816550.5066,1485.7142857142856,,1,1,1768871816.5505066
1768871816558.319,1466.6666666666663,,1,1,1768871816.558319
1768871816566.1316,1448.3516483516482,,1,1,1768871816.5661316
1768871816573.944,1426.3736263736262,,1,1,1768871816.573944
1768871816581.7566,1413.1868131868132,,1,1,1768871816.5817566
1768871816589.569,1397.8021978021975,,1,1,1768871816.589569
1768871816597.3816,1380.952380952381,,1,1,1768871816.5973816
1768871816605.194,1365.5677655677655,,1,1,1768871816.605194
1768871816613.0066,1343.5897435897434,,1,1,1768871816.6130066
1768871816620.819,1320.14652014652,,1,1,1768871816.620819
1768871816628.6316,1301.8315018315018,,1,1,1768871816.6286316
1768871816636.444,1287.179487179487,,1,1,1768871816.636444
1768871816644.2566,1279.120879120879,,1,1,1768871816.6442566
1768871816652.069,1276.190476190476,,1,1,1768871816.652069
1768871816659.8816,1270.3296703296703,,1,1,1768871816.6598816
1768871816667.694,1268.131868131868,,1,1,1768871816.667694
1768871816675.5066,1264.4688644688645,,1,1,1768871816.6755066
1768871816683.319,1263.7362637362637,,1,1,1768871816.683319
1768871816691.1316,1265.9340659340658,,1,1,1768871816.6911316
1768871816698.944,1268.8644688644688,,1,1,1768871816.698944
1768871816706.7566,1268.131868131868,,1,1,1768871816.7067566
1768871816714.569,1262.2710622710622,,1,1,1768871816.714569
1768871816722.3816,1254.212454212454,,1,1,1768871816.7223816
1768871816730.194,1243.956043956044,,1,1,1768871816.730194
1768871816738.0066,1232.2344322344322,,1,1,1768871816.7380066
1768871816745.819,1221.9780219780218,,1,1,1768871816.745819
1768871816753.6316,1212.4542124542124,,1,1,1768871816.7536316
1768871816761.444,1205.8608058608058,,1,1,1768871816.761444
1768871816769.2566,1198.5347985347985,,1,1,1768871816.7692566
1768871816777.069,1192.6739926739926,,1,1,1768871816.777069
1768871816784.8816,1189.7435897435896,,1,1,1768871816.7848816
1768871816792.694,1191.2087912087911,,1,1,1768871816.792694
1768871816800.5066,1194.1391941391942,,1,1,1768871816.8005066
1768871816808.319,1196.3369963369962,,1,1,1768871816.808319
1768871816816.1316,1194.8717948717947,,1,1,1768871816.8161316
1768871816823.944,1190.4761904761904,,1,1,1768871816.823944
1768871816831.7566,1182.4175824175825,,1,1,1768871816.8317566
1768871816839.569,1169.9633699633698,,1,1,1768871816.839569
1768871816847.3816,1158.241758241758,,1,1,1768871816.8473816
1768871816855.194,1147.2527472527472,,1,1,1768871816.855194
1768871816863.0066,1137.7289377289376,,1,1,1768871816.8630066
1768871816870.819,1134.7985347985348,,1,1,1768871816.870819
1768871816878.6316,1128.2051282051282,,1,1,1768871816.8786316
1768871816886.444,1122.3443223443223,,1,1,1768871816.886444
1768871816894.2566,1112.087912087912,,1,1,1768871816.8942566
1768871816902.069,1109.1575091575091,,1,1,1768871816.902069
1768871816909.8816,1111.3553113553112,,1,1,1768871816.9098816
1768871816917.694,1110.6227106227109,,1,1,1768871816.917694
1768871816925.5066,1112.087912087912,,1,1,1768871816.9255066
1768871816933.319,1111.3553113553112,,1,1,1768871816.933319
1768871816941.1316,1108.4249084249084,,1,1,1768871816.9411316
1768871816948.944,1104.029304029304,,1,1,1768871816.948944
1768871816956.7566,1104.7619047619046,,1,1,1768871816.9567566
1768871816964.569,1109.89010989011,,1,1,1768871816.964569
1768871816972.3816,1119.4139194139193,,1,1,1768871816.9723816
1768871816980.194,1131.135531135531,,1,1,1768871816.980194
1768871816988.0066,1144.3223443223442,,1,1,1768871816.9880066
1768871816995.819,1161.904761904762,,1,1,1768871816.995819
1768871817003.6316,1180.952380952381,,1,1,1768871817.0036316
1768871817011.444,1193.4065934065934,,1,1,1768871817.011444
1768871817019.2566,1206.5934065934066,,1,1,1768871817.0192566
1768871817027.069,1213.9194139194135,,1,1,1768871817.027069
1768871817034.8816,1219.7802197802198,,1,1,1768871817.0348816
1768871817042.694,1227.8388278388277,,1,1,1768871817.042694
1768871817050.5066,1233.6996336996335,,1,1,1768871817.0505066
1768871817058.319,1244.688644688645,,1,1,1768871817.058319
1768871817066.1316,1249.8168498168498,,1,1,1768871817.0661316
1768871817073.944,1262.2710622710622,,1,1,1768871817.073944
1768871817081.7566,1270.3296703296703,,1,1,1768871817.0817566
1768871817089.569,1282.051282051282,,1,1,1768871817.089569
1768871817097.3816,1289.3772893772891,,1,1,1768871817.0973816
1768871817105.194,1292.3076923076922,,1,1,1768871817.105194
1768871817113.0066,1297.4358974358977,,1,1,1768871817.1130066
1768871817120.819,1295.970695970696,,1,1,1768871817.120819
1768871817128.6316,1295.2380952380952,,1,1,1768871817.1286316
1768871817136.444,1288.6446886446886,,1,1,1768871817.136444
1768871817144.2566,1287.179487179487,,1,1,1768871817.1442566
1768871817152.069,1279.120879120879,,1,1,1768871817.152069
1768871817159.8816,1274.7252747252746,,1,1,1768871817.1598816
1768871817167.694,1265.9340659340658,,1,1,1768871817.167694
1768871817175.5066,1256.4102564102564,,1,1,1768871817.1755066
1768871817183.319,1241.0256410256409,,1,1,1768871817.183319
1768871817191.1316,1231.5018315018317,,1,1,1768871817.1911316
1768871817198.944,1227.8388278388277,,1,1,1768871817.198944
1768871817206.7566,1223.4432234432234,,1,1,1768871817.2067566
1768871817214.569,1221.9780219780218,,1,1,1768871817.214569
1768871817222.3816,1219.7802197802198,,1,1,1768871817.2223816
1768871817230.194,1210.2564102564102,,1,1,1768871817.230194
1768871817238.0066,1202.197802197802,,1,1,1768871817.2380066
1768871817245.819,1189.7435897435896,,1,1,1768871817.245819
1768871817253.6316,1181.6849816849815,,1,1,1768871817.2536316
1768871817261.444,1180.2197802197802,,1,1,1768871817.261444
1768871817269.2566,1176.5567765567764,,1,1,1768871817.2692566
1768871817277.069,1173.6263736263736,,1,1,1768871817.277069
1768871817284.8816,1172.8937728937728,,1,1,1768871817.2848816
1768871817292.694,1168.4981684981683,,1,1,1768871817.292694
1768871817300.5066,1170.6959706959706,,1,1,1768871817.3005066
1768871817308.319,1175.8241758241757,,1,1,1768871817.308319
1768871817316.1316,1180.952380952381,,1,1,1768871817.3161316
1768871817323.944,1183.150183150183,,1,1,1768871817.323944
1768871817331.7566,1190.4761904761904,,1,1,1768871817.3317566
1768871817339.569,1191.941391941392,,1,1,1768871817.339569
1768871817347.3816,1191.941391941392,,1,1,1768871817.3473816
1768871817355.194,1192.6739926739926,,1,1,1768871817.355194
1768871817363.0066,1189.0109890109889,,1,1,1768871817.3630066
1768871817370.819,1181.6849816849815,,1,1,1768871817.370819
1768871817378.6316,1172.8937728937728,,1,1,1768871817.3786316
1768871817386.444,1167.032967032967,,1,1,1768871817.386444
1768871817394.2566,1162.6373626373625,,1,1,1768871817.3942566
1768871817402.069,1158.241758241758,,1,1,1768871817.402069
1768871817409.8816,1154.5787545787546,,1,1,1768871817.4098816
1768871817417.694,1154.5787545787546,,1,1,1768871817.417694
1768871817425.5066,1147.2527472527472,,1,1,1768871817.4255066
1768871817433.319,1139.194139194139,,1,1,1768871817.433319
1768871817441.1316,1134.065934065934,,1,1,1768871817.4411316
1768871817448.944,1134.065934065934,,1,1,1768871817.448944
1768871817456.7566,1135.5311355311355,,1,1,1768871817.4567566
1768871817464.569,1138.4615384615383,,1,1,1768871817.464569
1768871817472.3816,1139.194139194139,,1,1,1768871817.4723816
1768871817480.194,1139.194139194139,,1,1,1768871817.480194
1768871817488.0066,1139.194139194139,,1,1,1768871817.4880066
1768871817495.819,1138.4615384615383,,1,1,1768871817.495819
1768871817503.6316,1136.2637362637363,,1,1,1768871817.5036316
1768871817511.444,1134.7985347985348,,1,1,1768871817.511444
1768871817519.2566,1134.065934065934,,1,1,1768871817.5192566
1768871817527.069,1136.9963369963368,,1,1,1768871817.527069
1768871817534.8816,1142.124542124542,,1,1,1768871817.5348816
1768871817542.694,1150.18315018315,,1,1,1768871817.542694
1768871817550.5066,1157.5091575091574,,1,1,1768871817.5505066
1768871817558.319,1164.8351648351647,,1,1,1768871817.558319
1768871817566.1316,1171.428571428571,,1,1,1768871817.5661316
1768871817573.944,1178.021978021978,,1,1,1768871817.573944
1768871817581.7566,1183.150183150183,,1,1,1768871817.5817566
1768871817589.569,1189.7435897435896,,1,1,1768871817.589569
1768871817597.3816,1199.2673992673992,,1,1,1768871817.5973816
1768871817605.194,1206.5934065934066,,1,1,1768871817.605194
1768871817613.0066,1216.117216117216,,1,1,1768871817.6130066
1768871817620.819,1230.03663003663,,1,1,1768871817.620819
1768871817628.6316,1238.8278388278388,,1,1,1768871817.6286316
1768871817636.444,1243.956043956044,,1,1,1768871817.636444
1768871817644.2566,1243.2234432234432,,1,1,1768871817.6442566
1768871817652.069,1241.7582417582416,,1,1,1768871817.652069
1768871817659.8816,1236.6300366300366,,1,1,1768871817.6598816
1768871817667.694,1233.6996336996335,,1,1,1768871817.667694
1768871817675.5066,1232.2344322344322,,1,1,1768871817.6755066
1768871817683.319,1232.967032967033,,1,1,1768871817.683319
1768871817691.1316,1236.6300366300366,,1,1,1768871817.6911316
1768871817698.944,1238.8278388278388,,1,1,1768871817.698944
1768871817706.7566,1241.7582417582416,,1,1,1768871817.7067566
1768871817714.569,1249.8168498168498,,1,1,1768871817.714569
1768871817722.3816,1256.4102564102564,,1,1,1768871817.7223816
1768871817730.194,1257.142857142857,,1,1,1768871817.730194
1768871817738.0066,1258.6080586080586,,1,1,1768871817.7380066
1768871817745.819,1259.3406593406592,,1,1,1768871817.745819
1768871817753.6316,1260.805860805861,,1,1,1768871817.7536316
1768871817761.444,1260.07326007326,,1,1,1768871817.761444
1768871817769.2566,1254.9450549450548,,1,1,1768871817.7692566
1768871817777.069,1252.7472527472526,,1,1,1768871817.777069
1768871817784.8816,1252.7472527472526,,1,1,1768871817.7848816
1768871817792.694,1246.153846153846,,0,-1,1768871817.792694
1768871817800.5066,1235.8974358974358,,0,-1,1768871817.8005066
1768871817808.319,1224.175824175824,,0,-1,1768871817.808319
1768871817816.1316,1214.6520146520145,,0,-1,1768871817.8161316
1768871817823.944,1206.5934065934066,,0,-1,1768871817.823944
1768871817831.7566,1205.128205128205,,0,-1,1768871817.8317566
1768871817839.569,1205.128205128205,,0,-1,1768871817.839569
1768871817847.3816,1206.5934065934066,,0,-1,1768871817.8473816
1768871817855.194,1215.3846153846152,,0,-1,1768871817.855194
1768871817863.0066,1216.117216117216,,0,-1,1768871817.8630066
1768871817870.819,1211.7216117216117,,0,-1,1768871817.870819
1768871817878.6316,1204.3956043956043,,0,-1,1768871817.8786316
1768871817886.444,1197.069597069597,,0,-1,1768871817.886444
1768871817894.2566,1186.080586080586,,0,-1,1768871817.8942566
1768871817902.069,1182.4175824175825,,0,-1,1768871817.902069
1768871817909.8816,1180.2197802197802,,0,-1,1768871817.9098816
1768871817917.694,1183.8827838827838,,0,-1,1768871817.917694
1768871817925.5066,1194.1391941391942,,0,-1,1768871817.9255066
1768871817933.319,1205.128205128205,,0,-1,1768871817.933319
1768871817941.1316,1225.6410256410256,,0,-1,1768871817.9411316
1768871817948.944,1243.956043956044,,0,-1,1768871817.948944
1768871817956.7566,1264.4688644688645,,0,-1,1768871817.9567566
1768871817964.569,1281.3186813186812,,0,-1,1768871817.964569
1768871817972.3816,1291.5750915750914,,0,-1,1768871817.9723816
1768871817980.194,1292.3076923076922,,0,-1,1768871817.980194
1768871817988.0066,1293.7728937728937,,0,-1,1768871817.9880066
1768871817995.819,1290.10989010989,,0,-1,1768871817.995819
1768871818003.6316,1280.5860805860805,,0,-1,1768871818.0036316
1768871818011.444,1273.260073260073,,0,-1,1768871818.011444
1768871818019.2566,1263.003663003663,,0,-1,1768871818.0192566
1768871818027.069,1260.07326007326,,0,-1,1768871818.027069
1768871818034.8816,1252.014652014652,,0,-1,1768871818.0348816
1768871818042.694,1247.6190476190477,,0,-1,1768871818.042694
1768871818050.5066,1241.7582417582416,,0,-1,1768871818.0505066
1768871818058.319,1242.4908424908424,,0,-1,1768871818.058319
1768871818066.1316,1240.29304029304,,0,-1,1768871818.0661316
1768871818073.944,1241.0256410256409,,0,-1,1768871818.073944
1768871818081.7566,1238.095238095238,,0,-1,1768871818.0817566
1768871818089.569,1229.3040293040292,,0,-1,1768871818.089569
1768871818097.3816,1221.9780219780218,,0,-1,1768871818.0973816
1768871818105.194,1212.4542124542124,,0,-1,1768871818.105194
1768871818113.0066,1205.8608058608058,,0,-1,1768871818.1130066
1768871818120.819,1202.9304029304028,,0,-1,1768871818.120819
1768871818128.6316,1195.6043956043954,,0,-1,1768871818.1286316
1768871818136.444,1191.2087912087911,,0,-1,1768871818.136444
1768871818144.2566,1186.080586080586,,0,-1,1768871818.1442566
1768871818152.069,1182.4175824175825,,0,-1,1768871818.152069
1768871818159.8816,1186.080586080586,,0,-1,1768871818.1598816
1768871818167.694,1189.7435897435896,,0,-1,1768871818.167694
1768871818175.5066,1192.6739926739926,,0,-1,1768871818.1755066
1768871818183.319,1199.2673992673992,,0,-1,1768871818.183319
1768871818191.1316,1206.5934065934066,,0,-1,1768871818.1911316
1768871818198.944,1208.7912087912086,,0,-1,1768871818.198944
1768871818206.7566,1209.5238095238094,,0,-1,1768871818.2067566
1768871818214.569,1213.9194139194135,,0,-1,1768871818.214569
1768871818222.3816,1216.8498168498168,,0,-1,1768871818.2223816
1768871818230.194,1218.3150183150185,,0,-1,1768871818.230194
1768871818238.0066,1227.106227106227,,0,-1,1768871818.2380066
1768871818245.819,1241.0256410256409,,0,-1,1768871818.245819
1768871818253.6316,1257.142857142857,,0,-1,1768871818.2536316
1768871818261.444,1272.5274725274724,,0,-1,1768871818.261444
1768871818269.2566,1289.3772893772891,,0,-1,1768871818.2692566
1768871818277.069,1306.227106227106,,0,-1,1768871818.277069
1768871818284.8816,1325.2747252747251,,0,-1,1768871818.2848816
1768871818292.694,1340.6593406593406,,0,-1,1768871818.292694
1768871818300.5066,1354.5787545787546,,0,-1,1768871818.3005066
1768871818308.319,1365.5677655677655,,0,-1,1768871818.308319
1768871818316.1316,1368.4981684981683,,0,-1,1768871818.3161316
1768871818323.944,1367.032967032967,,0,-1,1768871818.323944
1768871818331.7566,1369.9633699633698,,0,-1,1768871818.3317566
1768871818339.569,1374.3589743589744,,0,-1,1768871818.339569
1768871818347.3816,1378.021978021978,,0,-1,1768871818.3473816
1768871818355.194,1378.7545787545787,,0,-1,1768871818.355194
1768871818363.0066,1378.021978021978,,0,-1,1768871818.3630066
1768871818370.819,1375.8241758241757,,0,-1,1768871818.370819
1768871818378.6316,1371.428571428571,,0,-1,1768871818.3786316
1768871818386.444,1361.904761904762,,0,-1,1768871818.386444
1768871818394.2566,1344.3223443223442,,0,-1,1768871818.3942566
1768871818402.069,1322.3443223443223,,0,-1,1768871818.402069
1768871818409.8816,1302.5641025641023,,0,-1,1768871818.4098816
1768871818417.694,1283.5164835164835,,0,-1,1768871818.417694
1768871818425.5066,1268.131868131868,,0,-1,1768871818.4255066
1768871818433.319,1255.6776556776556,,0,-1,1768871818.433319
1768871818441.1316,1246.153846153846,,0,-1,1768871818.4411316
1768871818448.944,1242.4908424908424,,0,-1,1768871818.448944
1768871818456.7566,1244.688644688645,,0,-1,1768871818.4567566
1768871818464.569,1251.2820512820513,,0,-1,1768871818.464569
1768871818472.3816,1255.6776556776556,,0,-1,1768871818.4723816
1768871818480.194,1257.142857142857,,0,-1,1768871818.480194
1768871818488.0066,1256.4102564102564,,0,-1,1768871818.4880066
1768871818495.819,1254.9450549450548,,0,-1,1768871818.495819
1768871818503.6316,1253.479853479853,,0,-1,1768871818.5036316
1768871818511.444,1249.8168498168498,,0,-1,1768871818.511444
1768871818519.2566,1246.8864468864467,,0,-1,1768871818.5192566
1768871818527.069,1243.2234432234432,,0,-1,1768871818.527069
1768871818534.8816,1238.8278388278388,,0,-1,1768871818.5348816
1768871818542.694,1235.164835164835,,0,-1,1768871818.542694
1768871818550.5066,1236.6300366300366,,0,-1,1768871818.5505066
1768871818558.319,1241.7582417582416,,0,-1,1768871818.558319
1768871818566.1316,1251.2820512820513,,0,-1,1768871818.5661316
1768871818573.944,1263.003663003663,,0,-1,1768871818.573944
1768871818581.7566,1273.260073260073,,0,-1,1768871818.5817566
1768871818589.569,1280.5860805860805,,0,-1,1768871818.589569
1768871818597.3816,1285.7142857142856,,0,-1,1768871818.5973816
1768871818605.194,1285.7142857142856,,0,-1,1768871818.605194
1768871818613.0066,1283.5164835164835,,0,-1,1768871818.6130066
1768871818620.819,1280.5860805860805,,0,-1,1768871818.620819
1768871818628.6316,1274.7252747252746,,0,-1,1768871818.6286316
1768871818636.444,1270.3296703296703,,0,-1,1768871818.636444
1768871818644.2566,1259.3406593406592,,0,-1,1768871818.6442566
1768871818652.069,1246.8864468864467,,0,-1,1768871818.652069
1768871818659.8816,1238.8278388278388,,0,-1,1768871818.6598816
1768871818667.694,1230.03663003663,,0,-1,1768871818.667694
1768871818675.5066,1221.9780219780218,,0,-1,1768871818.6755066
1768871818683.319,1216.8498168498168,,0,-1,1768871818.683319
1768871818691.1316,1213.9194139194135,,0,-1,1768871818.6911316
1768871818698.944,1210.989010989011,,0,-1,1768871818.698944
1768871818706.7566,1208.058608058608,,0,-1,1768871818.7067566
1768871818714.569,1212.4542124542124,,0,-1,1768871818.714569
1768871818722.3816,1220.5128205128203,,0,-1,1768871818.7223816
1768871818730.194,1226.3736263736264,,0,-1,1768871818.730194
1768871818738.0066,1232.2344322344322,,0,-1,1768871818.7380066
1768871818745.819,1247.6190476190477,,0,-1,1768871818.745819
1768871818753.6316,1263.7362637362637,,0,-1,1768871818.7536316
1768871818761.444,1276.190476190476,,0,-1,1768871818.761444
1768871818769.2566,1290.10989010989,,0,-1,1768871818.7692566
1768871818777.069,1301.8315018315018,,0,-1,1768871818.777069
1768871818784.8816,1309.1575091575091,,0,-1,1768871818.7848816
1768871818792.694,1316.4835164835165,,0,-1,1768871818.792694
1768871818800.5066,1316.4835164835165,,0,-1,1768871818.8005066
1768871818808.319,1318.6813186813183,,0,-1,1768871818.808319
1768871818816.1316,1315.018315018315,,0,-1,1768871818.8161316
1768871818823.944,1312.087912087912,,0,-1,1768871818.823944
1768871818831.7566,1303.2967032967033,,0,-1,1768871818.8317566
1768871818839.569,1301.8315018315018,,0,-1,1768871818.839569
1768871818847.3816,1297.4358974358977,,0,-1,1768871818.8473816
1768871818855.194,1299.6336996336995,,0,-1,1768871818.855194
1768871818863.0066,1297.4358974358977,,0,-1,1768871818.8630066
1768871818870.819,1301.8315018315018,,0,-1,1768871818.870819
1768871818878.6316,1299.6336996336995,,0,-1,1768871818.8786316
1768871818886.444,1303.2967032967033,,0,-1,1768871818.886444
1768871818894.2566,1303.2967032967033,,0,-1,1768871818.8942566
1768871818902.069,1309.89010989011,,0,-1,1768871818.902069
1768871818909.8816,1312.087912087912,,0,-1,1768871818.9098816
1768871818917.694,1312.8205128205127,,0,-1,1768871818.917694
1768871818925.5066,1312.087912087912,,0,-1,1768871818.9255066
1768871818933.319,1308.4249084249084,,0,-1,1768871818.933319
1768871818941.1316,1302.5641025641023,,0,-1,1768871818.9411316
1768871818948.944,1299.6336996336995,,0,-1,1768871818.948944
1768871818956.7566,1293.7728937728937,,0,-1,1768871818.9567566
1768871818964.569,1293.7728937728937,,0,-1,1768871818.964569
1768871818972.3816,1290.10989010989,,0,-1,1768871818.9723816
1768871818980.194,1284.2490842490845,,0,-1,1768871818.980194
1768871818988.0066,1284.9816849816848,,0,-1,1768871818.9880066
1768871818995.819,1279.8534798534797,,0,-1,1768871818.995819
1768871819003.6316,1280.5860805860805,,0,-1,1768871819.0036316
1768871819011.444,1272.5274725274724,,0,-1,1768871819.011444
1768871819019.2566,1263.7362637362637,,0,-1,1768871819.0192566
1768871819027.069,1264.4688644688645,,0,-1,1768871819.027069
1768871819034.8816,1263.7362637362637,,0,-1,1768871819.0348816
1768871819042.694,1268.131868131868,,0,-1,1768871819.042694
1768871819050.5066,1264.4688644688645,,0,-1,1768871819.0505066
1768871819058.319,1263.003663003663,,0,-1,1768871819.058319
1768871819066.1316,1264.4688644688645,,0,-1,1768871819.0661316
1768871819073.944,1263.7362637362637,,0,-1,1768871819.073944
1768871819081.7566,1267.3992673992673,,0,-1,1768871819.0817566
1768871819089.569,1265.9340659340658,,0,-1,1768871819.089569
1768871819097.3816,1268.8644688644688,,0,-1,1768871819.0973816
1768871819105.194,1269.5970695970695,,0,-1,1768871819.105194
1768871819113.0066,1274.7252747252746,,0,-1,1768871819.1130066
1768871819120.819,1276.923076923077,,0,-1,1768871819.120819
1768871819128.6316,1271.7948717948716,,0,-1,1768871819.1286316
1768871819136.444,1271.7948717948716,,0,-1,1768871819.136444
1768871819144.2566,1271.7948717948716,,0,-1,1768871819.1442566
1768871819152.069,1269.5970695970695,,0,-1,1768871819.152069
1768871819159.8816,1273.992673992674,,0,-1,1768871819.1598816
1768871819167.694,1276.923076923077,,0,-1,1768871819.167694
1768871819175.5066,1275.4578754578754,,0,-1,1768871819.1755066
1768871819183.319,1271.7948717948716,,0,-1,1768871819.183319
1768871819191.1316,1266.6666666666663,,0,-1,1768871819.1911316
1768871819198.944,1257.142857142857,,0,-1,1768871819.198944
1768871819206.7566,1245.4212454212454,,0,-1,1768871819.2067566
1768871819214.569,1238.095238095238,,0,-1,1768871819.214569
1768871819222.3816,1232.2344322344322,,0,-1,1768871819.2223816
1768871819230.194,1227.8388278388277,,0,-1,1768871819.230194
1768871819238.0066,1227.106227106227,,0,-1,1768871819.2380066
1768871819245.819,1231.5018315018317,,0,-1,1768871819.245819
1768871819253.6316,1237.362637362637,,0,-1,1768871819.2536316
1768871819261.444,1241.7582417582416,,0,-1,1768871819.261444
1768871819269.2566,1249.084249084249,,0,-1,1768871819.2692566
1768871819277.069,1258.6080586080586,,0,-1,1768871819.277069
1768871819284.8816,1266.6666666666663,,0,-1,1768871819.2848816
1768871819292.694,1275.4578754578754,,0,-1,1768871819.292694
1768871819300.5066,1280.5860805860805,,0,-1,1768871819.3005066
1768871819308.319,1286.4468864468863,,0,-1,1768871819.308319
1768871819316.1316,1294.5054945054944,,0,-1,1768871819.3161316
1768871819323.944,1303.2967032967033,,0,-1,1768871819.323944
1768871819331.7566,1312.8205128205127,,0,-1,1768871819.3317566
1768871819339.569,1320.14652014652,,0,-1,1768871819.339569
1768871819347.3816,1323.8095238095236,,0,-1,1768871819.3473816
1768871819355.194,1328.937728937729,,0,-1,1768871819.355194
1768871819363.0066,1334.065934065934,,0,-1,1768871819.3630066
1768871819370.819,1336.263736263736,,0,-1,1768871819.370819
1768871819378.6316,1337.7289377289376,,0,-1,1768871819.3786316
1768871819386.444,1337.7289377289376,,0,-1,1768871819.386444
1768871819394.2566,1337.7289377289376,,0,-1,1768871819.3942566
1768871819402.069,1336.263736263736,,0,-1,1768871819.402069
1768871819409.8816,1331.8681318681315,,0,-1,1768871819.4098816
1768871819417.694,1327.4725274725274,,0,-1,1768871819.417694
1768871819425.5066,1325.2747252747251,,0,-1,1768871819.4255066
1768871819433.319,1315.7509157509155,,0,-1,1768871819.433319
1768871819441.1316,1307.6923076923076,,0,-1,1768871819.4411316
1768871819448.944,1299.6336996336995,,0,-1,1768871819.448944
1768871819456.7566,1295.2380952380952,,0,-1,1768871819.4567566
1768871819464.569,1293.7728937728937,,0,-1,1768871819.464569
1768871819472.3816,1295.2380952380952,,0,-1,1768871819.4723816
1768871819480.194,1296.7032967032967,,1,2,1768871819.480194
1768871819488.0066,1297.4358974358977,,1,2,1768871819.4880066
1768871819495.819,1295.970695970696,,1,2,1768871819.495819
1768871819503.6316,1293.7728937728937,,1,2,1768871819.5036316
1768871819511.444,1293.040293040293,,1,2,1768871819.511444
1768871819519.2566,1291.5750915750914,,1,2,1768871819.5192566
1768871819527.069,1292.3076923076922,,1,2,1768871819.527069
1768871819534.8816,1293.7728937728937,,1,2,1768871819.5348816
1768871819542.694,1295.2380952380952,,1,2,1768871819.542694
1768871819550.5066,1296.7032967032967,,1,2,1768871819.5505066
1768871819558.319,1296.7032967032967,,1,2,1768871819.558319
1768871819566.1316,1295.970695970696,,1,2,1768871819.5661316
1768871819573.944,1296.7032967032967,,1,2,1768871819.573944
1768871819581.7566,1293.7728937728937,,1,2,1768871819.5817566
1768871819589.569,1291.5750915750914,,1,2,1768871819.589569
1768871819597.3816,1291.5750915750914,,1,2,1768871819.5973816
1768871819605.194,1293.7728937728937,,1,2,1768871819.605194
1768871819613.0066,1293.7728937728937,,1,2,1768871819.6130066
1768871819620.819,1291.5750915750914,,1,2,1768871819.620819
1768871819628.6316,1287.9120879120878,,1,2,1768871819.6286316
1768871819636.444,1283.5164835164835,,1,2,1768871819.636444
1768871819644.2566,1279.8534798534797,,1,2,1768871819.6442566
1768871819652.069,1276.190476190476,,1,2,1768871819.652069
1768871819659.8816,1272.5274725274724,,1,2,1768871819.6598816
1768871819667.694,1271.062271062271,,1,2,1768871819.667694
1768871819675.5066,1268.8644688644688,,1,2,1768871819.6755066
1768871819683.319,1267.3992673992673,,1,2,1768871819.683319
1768871819691.1316,1268.131868131868,,1,2,1768871819.6911316
1768871819698.944,1272.5274725274724,,1,2,1768871819.698944
1768871819706.7566,1279.120879120879,,1,2,1768871819.7067566
1768871819714.569,1284.2490842490845,,1,2,1768871819.714569
1768871819722.3816,1290.10989010989,,1,2,1768871819.7223816
1768871819730.194,1294.5054945054944,,1,2,1768871819.730194
1768871819738.0066,1297.4358974358977,,1,2,1768871819.7380066
1768871819745.819,1296.7032967032967,,1,2,1768871819.745819
1768871819753.6316,1293.7728937728937,,1,2,1768871819.7536316
1768871819761.444,1287.9120879120878,,1,2,1768871819.761444
1768871819769.2566,1278.3882783882782,,1,2,1768871819.7692566
1768871819777.069,1271.7948717948716,,1,2,1768871819.777069
1768871819784.8816,1270.3296703296703,,1,2,1768871819.7848816
1768871819792.694,1270.3296703296703,,1,2,1768871819.792694
1768871819800.5066,1267.3992673992673,,1,2,1768871819.8005066
1768871819808.319,1261.5384615384614,,1,2,1768871819.808319
1768871819816.1316,1250.5494505494505,,1,2,1768871819.8161316
1768871819823.944,1241.7582417582416,,1,2,1768871819.823944
1768871819831.7566,1236.6300366300366,,1,2,1768871819.8317566
1768871819839.569,1233.6996336996335,,1,2,1768871819.839569
1768871819847.3816,1235.8974358974358,,1,2,1768871819.8473816
1768871819855.194,1241.0256410256409,,1,2,1768871819.855194
1768871819863.0066,1248.3516483516482,,1,2,1768871819.8630066
1768871819870.819,1257.875457875458,,1,2,1768871819.870819
1768871819878.6316,1269.5970695970695,,1,2,1768871819.8786316
1768871819886.444,1287.179487179487,,1,2,1768871819.886444
1768871819894.2566,1309.89010989011,,1,2,1768871819.8942566
1768871819902.069,1325.2747252747251,,1,2,1768871819.902069
1768871819909.8816,1333.3333333333333,,1,2,1768871819.9098816
1768871819917.694,1342.124542124542,,1,2,1768871819.917694
1768871819925.5066,1344.3223443223442,,1,2,1768871819.9255066
1768871819933.319,1342.857142857143,,1,2,1768871819.933319
1768871819941.1316,1340.6593406593406,,1,2,1768871819.9411316
1768871819948.944,1336.9963369963368,,1,2,1768871819.948944
1768871819956.7566,1335.5311355311355,,1,2,1768871819.9567566
1768871819964.569,1330.4029304029302,,1,2,1768871819.964569
1768871819972.3816,1337.7289377289376,,1,2,1768871819.9723816
1768871819980.194,1341.3919413919414,,1,2,1768871819.980194
1768871819988.0066,1346.5201465201465,,1,2,1768871819.9880066
1768871819995.819,1346.5201465201465,,1,2,1768871819.995819
1768871820003.6316,1350.9157509157508,,1,2,1768871820.0036316
1768871820011.444,1355.311355311355,,1,2,1768871820.011444
1768871820019.2566,1354.5787545787546,,1,2,1768871820.0192566
1768871820027.069,1357.5091575091574,,1,2,1768871820.027069
1768871820034.8816,1351.6483516483515,,1,2,1768871820.0348816
1768871820042.694,1346.5201465201465,,1,2,1768871820.042694
1768871820050.5066,1337.7289377289376,,1,2,1768871820.0505066
1768871820058.319,1332.6007326007325,,1,2,1768871820.058319
1768871820066.1316,1322.3443223443223,,1,2,1768871820.0661316
1768871820073.944,1315.7509157509155,,1,2,1768871820.073944
1768871820081.7566,1309.89010989011,,1,2,1768871820.0817566
1768871820089.569,1304.7619047619046,,1,2,1768871820.089569
1768871820097.3816,1304.7619047619046,,1,2,1768871820.0973816
1768871820105.194,1302.5641025641023,,1,2,1768871820.105194
1768871820113.0066,1306.227106227106,,1,2,1768871820.1130066
1768871820120.819,1308.4249084249084,,1,2,1768871820.120819
1768871820128.6316,1309.89010989011,,1,2,1768871820.1286316
1768871820136.444,1313.5531135531137,,1,2,1768871820.136444
1768871820144.2566,1312.8205128205127,,1,2,1768871820.1442566
1768871820152.069,1315.7509157509155,,1,2,1768871820.152069
1768871820159.8816,1316.4835164835165,,1,2,1768871820.1598816
1768871820167.694,1312.8205128205127,,1,2,1768871820.167694
1768871820175.5066,1312.8205128205127,,1,2,1768871820.1755066
1768871820183.319,1313.5531135531137,,1,2,1768871820.183319
1768871820191.1316,1311.3553113553112,,1,2,1768871820.1911316
1768871820198.944,1304.0293040293038,,1,2,1768871820.198944
1768871820206.7566,1295.2380952380952,,1,2,1768871820.2067566
1768871820214.569,1290.10989010989,,1,2,1768871820.214569
1768871820222.3816,1278.3882783882782,,1,2,1768871820.2223816
1768871820230.194,1270.3296703296703,,1,2,1768871820.230194
1768871820238.0066,1261.5384615384614,,1,2,1768871820.2380066
1768871820245.819,1257.142857142857,,1,2,1768871820.245819
1768871820253.6316,1260.07326007326,,1,2,1768871820.2536316
1768871820261.444,1264.4688644688645,,1,2,1768871820.261444
1768871820269.2566,1265.9340659340658,,1,2,1768871820.2692566
1768871820277.069,1267.3992673992673,,1,2,1768871820.277069
1768871820284.8816,1270.3296703296703,,1,2,1768871820.2848816
1768871820292.694,1274.7252747252746,,1,2,1768871820.292694
1768871820300.5066,1281.3186813186812,,1,2,1768871820.3005066
1768871820308.319,1288.6446886446886,,1,2,1768871820.308319
1768871820316.1316,1293.040293040293,,1,2,1768871820.3161316
1768871820323.944,1293.7728937728937,,1,2,1768871820.323944
1768871820331.7566,1290.8424908424909,,1,2,1768871820.3317566
1768871820339.569,1288.6446886446886,,1,2,1768871820.339569
1768871820347.3816,1286.4468864468863,,1,2,1768871820.3473816
1768871820355.194,1285.7142857142856,,1,2,1768871820.355194
1768871820363.0066,1284.9816849816848,,1,2,1768871820.3630066
1768871820370.819,1284.9816849816848,,1,2,1768871820.370819
1768871820378.6316,1286.4468864468863,,1,2,1768871820.3786316
1768871820386.444,1285.7142857142856,,1,2,1768871820.386444
1768871820394.2566,1281.3186813186812,,1,2,1768871820.3942566
1768871820402.069,1273.992673992674,,1,2,1768871820.402069
1768871820409.8816,1265.9340659340658,,1,2,1768871820.4098816
1768871820417.694,1263.7362637362637,,1,2,1768871820.417694
1768871820425.5066,1263.7362637362637,,1,2,1768871820.4255066
1768871820433.319,1267.3992673992673,,1,2,1768871820.433319
1768871820441.1316,1269.5970695970695,,1,2,1768871820.4411316
1768871820448.944,1273.260073260073,,1,2,1768871820.448944
1768871820456.7566,1278.3882783882782,,1,2,1768871820.4567566
1768871820464.569,1283.5164835164835,,1,2,1768871820.464569
1768871820472.3816,1287.9120879120878,,1,2,1768871820.4723816
1768871820480.194,1293.040293040293,,1,2,1768871820.480194
1768871820488.0066,1296.7032967032967,,1,2,1768871820.4880066
1768871820495.819,1298.168498168498,,1,2,1768871820.495819
1768871820503.6316,1300.3663003663005,,1,2,1768871820.5036316
1768871820511.444,1304.7619047619046,,1,2,1768871820.511444
1768871820519.2566,1308.4249084249084,,1,2,1768871820.5192566
1768871820527.069,1306.9597069597069,,1,2,1768871820.527069
1768871820534.8816,1306.9597069597069,,1,2,1768871820.5348816
1768871820542.694,1311.3553113553112,,1,2,1768871820.542694
1768871820550.5066,1316.4835164835165,,1,2,1768871820.5505066
1768871820558.319,1321.6117216117216,,1,2,1768871820.558319
1768871820566.1316,1327.4725274725274,,1,2,1768871820.5661316
1768871820573.944,1334.065934065934,,1,2,1768871820.573944
1768871820581.7566,1339.92673992674,,1,2,1768871820.5817566
1768871820589.569,1340.6593406593406,,1,2,1768871820.589569
1768871820597.3816,1341.3919413919414,,1,2,1768871820.5973816
1768871820605.194,1342.857142857143,,1,2,1768871820.605194
1768871820613.0066,1343.5897435897434,,1,2,1768871820.6130066
1768871820620.819,1340.6593406593406,,1,2,1768871820.620819
1768871820628.6316,1335.5311355311355,,1,2,1768871820.6286316
1768871820636.444,1332.6007326007325,,1,2,1768871820.636444
1768871820644.2566,1327.4725274725274,,1,2,1768871820.6442566
1768871820652.069,1317.9487179487178,,1,2,1768871820.652069
1768871820659.8816,1309.1575091575091,,1,2,1768871820.6598816
1768871820667.694,1302.5641025641023,,1,2,1768871820.667694
1768871820675.5066,1295.970695970696,,1,2,1768871820.6755066
1768871820683.319,1290.8424908424909,,1,2,1768871820.683319
1768871820691.1316,1290.10989010989,,1,2,1768871820.6911316
1768871820698.944,1293.040293040293,,1,2,1768871820.698944
1768871820706.7566,1295.2380952380952,,1,2,1768871820.7067566
1768871820714.569,1297.4358974358977,,1,2,1768871820.714569
1768871820722.3816,1303.2967032967033,,1,2,1768871820.7223816
1768871820730.194,1310.6227106227104,,1,2,1768871820.730194
1768871820738.0066,1315.018315018315,,1,2,1768871820.7380066
1768871820745.819,1317.9487179487178,,1,2,1768871820.745819
1768871820753.6316,1321.6117216117216,,1,2,1768871820.7536316
1768871820761.444,1323.076923076923,,1,2,1768871820.761444
1768871820769.2566,1323.076923076923,,1,2,1768871820.7692566
1768871820777.069,1320.8791208791208,,1,2,1768871820.777069
1768871820784.8816,1320.8791208791208,,1,2,1768871820.7848816
1768871820792.694,1318.6813186813183,,1,2,1768871820.792694
1768871820800.5066,1312.8205128205127,,1,2,1768871820.8005066
1768871820808.319,1304.0293040293038,,1,2,1768871820.808319
1768871820816.1316,1298.168498168498,,1,2,1768871820.8161316
1768871820823.944,1293.7728937728937,,1,2,1768871820.823944
1768871820831.7566,1290.10989010989,,1,2,1768871820.8317566
1768871820839.569,1290.8424908424909,,1,2,1768871820.839569
1768871820847.3816,1293.7728937728937,,1,2,1768871820.8473816
1768871820855.194,1296.7032967032967,,1,2,1768871820.855194
1768871820863.0066,1297.4358974358977,,1,2,1768871820.8630066
1768871820870.819,1299.6336996336995,,1,2,1768871820.870819
1768871820878.6316,1299.6336996336995,,1,2,1768871820.8786316
1768871820886.444,1296.7032967032967,,1,2,1768871820.886444
1768871820894.2566,1293.040293040293,,1,2,1768871820.8942566
1768871820902.069,1292.3076923076922,,1,2,1768871820.902069
1768871820909.8816,1287.9120879120878,,1,2,1768871820.9098816
1768871820917.694,1282.051282051282,,1,2,1768871820.917694
1768871820925.5066,1280.5860805860805,,1,2,1768871820.9255066
1768871820933.319,1282.7838827838827,,1,2,1768871820.933319
1768871820941.1316,1280.5860805860805,,1,2,1768871820.9411316
1768871820948.944,1281.3186813186812,,1,2,1768871820.948944
1768871820956.7566,1277.6556776556777,,1,2,1768871820.9567566
1768871820964.569,1265.9340659340658,,1,2,1768871820.964569
1768871820972.3816,1253.479853479853,,1,2,1768871820.9723816
1768871820980.194,1238.095238095238,,1,2,1768871820.980194
1768871820988.0066,1227.8388278388277,,1,2,1768871820.9880066
1768871820995.819,1230.03663003663,,1,2,1768871820.995819
1768871821003.6316,1235.164835164835,,1,2,1768871821.0036316
1768871821011.444,1244.688644688645,,1,2,1768871821.011444
1768871821019.2566,1254.9450549450548,,1,2,1768871821.0192566
1768871821027.069,1265.9340659340658,,1,2,1768871821.027069
1768871821034.8816,1275.4578754578754,,1,2,1768871821.0348816
1768871821042.694,1292.3076923076922,,1,2,1768871821.042694
1768871821050.5066,1310.6227106227104,,1,2,1768871821.0505066
1768871821058.319,1324.5421245421244,,1,2,1768871821.058319
1768871821066.1316,1336.263736263736,,1,2,1768871821.0661316
1768871821073.944,1351.6483516483515,,1,2,1768871821.073944
1768871821081.7566,1361.904761904762,,1,2,1768871821.0817566
1768871821089.569,1376.5567765567764,,1,2,1768871821.089569
1768871821097.3816,1383.8827838827838,,1,2,1768871821.0973816
1768871821105.194,1391.941391941392,,1,2,1768871821.105194
1768871821113.0066,1397.8021978021975,,1,2,1768871821.1130066
1768871821120.819,1397.069597069597,,1,2,1768871821.120819
1768871821128.6316,1399.2673992673992,,1,2,1768871821.1286316
1768871821136.444,1396.3369963369962,,1,2,1768871821.136444
1768871821144.2566,1388.278388278388,,1,2,1768871821.1442566
1768871821152.069,1384.6153846153843,,0,-1,1768871821.152069
1768871821159.8816,1378.7545787545787,,0,-1,1768871821.1598816
1768871821167.694,1376.5567765567764,,0,-1,1768871821.167694
1768871821175.5066,1368.4981684981683,,0,-1,1768871821.1755066
1768871821183.319,1358.974358974359,,0,-1,1768871821.183319
1768871821191.1316,1347.985347985348,,0,-1,1768871821.1911316
1768871821198.944,1336.9963369963368,,0,-1,1768871821.198944
1768871821206.7566,1328.937728937729,,0,-1,1768871821.2067566
1768871821214.569,1326.739926739927,,0,-1,1768871821.214569
1768871821222.3816,1321.6117216117216,,0,-1,1768871821.2223816
1768871821230.194,1323.8095238095236,,0,-1,1768871821.230194
1768871821238.0066,1324.5421245421244,,0,-1,1768871821.2380066
1768871821245.819,1324.5421245421244,,0,-1,1768871821.245819
1768871821253.6316,1328.2051282051282,,0,-1,1768871821.2536316
1768871821261.444,1326.007326007326,,0,-1,1768871821.261444
1768871821269.2566,1324.5421245421244,,0,-1,1768871821.2692566
1768871821277.069,1323.076923076923,,0,-1,1768871821.277069
1768871821284.8816,1320.8791208791208,,0,-1,1768871821.2848816
1768871821292.694,1325.2747252747251,,0,-1,1768871821.292694
1768871821300.5066,1328.937728937729,,0,-1,1768871821.3005066
1768871821308.319,1334.065934065934,,0,-1,1768871821.308319
1768871821316.1316,1332.6007326007325,,0,-1,1768871821.3161316
1768871821323.944,1328.937728937729,,0,-1,1768871821.323944
1768871821331.7566,1328.2051282051282,,0,-1,1768871821.3317566
1768871821339.569,1320.14652014652,,0,-1,1768871821.339569
1768871821347.3816,1316.4835164835165,,0,-1,1768871821.3473816
1768871821355.194,1316.4835164835165,,0,-1,1768871821.355194
1768871821363.0066,1315.018315018315,,0,-1,1768871821.3630066
1768871821370.819,1321.6117216117216,,0,-1,1768871821.370819
1768871821378.6316,1321.6117216117216,,0,-1,1768871821.3786316
1768871821386.444,1326.007326007326,,0,-1,1768871821.386444
1768871821394.2566,1326.739926739927,,0,-1,1768871821.3942566
1768871821402.069,1324.5421245421244,,0,-1,1768871821.402069
1768871821409.8816,1328.937728937729,,0,-1,1768871821.4098816
1768871821417.694,1328.2051282051282,,0,-1,1768871821.417694
1768871821425.5066,1330.4029304029302,,0,-1,1768871821.4255066
1768871821433.319,1331.8681318681315,,0,-1,1768871821.433319
1768871821441.1316,1334.065934065934,,0,-1,1768871821.4411316
1768871821448.944,1335.5311355311355,,0,-1,1768871821.448944
1768871821456.7566,1333.3333333333333,,0,-1,1768871821.4567566
1768871821464.569,1331.8681318681315,,0,-1,1768871821.464569
1768871821472.3816,1328.937728937729,,0,-1,1768871821.4723816
1768871821480.194,1325.2747252747251,,0,-1,1768871821.480194
1768871821488.0066,1318.6813186813183,,0,-1,1768871821.4880066
1768871821495.819,1310.6227106227104,,0,-1,1768871821.495819
1768871821503.6316,1304.7619047619046,,0,-1,1768871821.5036316
1768871821511.444,1301.8315018315018,,0,-1,1768871821.511444
1768871821519.2566,1297.4358974358977,,0,-1,1768871821.5192566
1768871821527.069,1294.5054945054944,,0,-1,1768871821.527069
1768871821534.8816,1293.040293040293,,0,-1,1768871821.5348816
1768871821542.694,1293.040293040293,,0,-1,1768871821.542694
1768871821550.5066,1290.8424908424909,,0,-1,1768871821.5505066
1768871821558.319,1284.9816849816848,,0,-1,1768871821.558319
1768871821566.1316,1279.8534798534797,,0,-1,1768871821.5661316
1768871821573.944,1279.120879120879,,0,-1,1768871821.573944
1768871821581.7566,1279.8534798534797,,0,-1,1768871821.5817566
1768871821589.569,1278.3882783882782,,0,-1,1768871821.589569
1768871821597.3816,1279.8534798534797,,0,-1,1768871821.5973816
1768871821605.194,1287.9120879120878,,0,-1,1768871821.605194
1768871821613.0066,1304.7619047619046,,0,-1,1768871821.6130066
1768871821620.819,1327.4725274725274,,0,-1,1768871821.620819
1768871821628.6316,1352.3809523809523,,0,-1,1768871821.6286316
1768871821636.444,1378.7545787545787,,0,-1,1768871821.636444
1768871821644.2566,1404.3956043956043,,0,-1,1768871821.6442566
1768871821652.069,1425.6410256410256,,0,-1,1768871821.652069
1768871821659.8816,1443.2234432234432,,0,-1,1768871821.6598816
1768871821667.694,1459.3406593406592,,0,-1,1768871821.667694
1768871821675.5066,1471.7948717948716,,0,-1,1768871821.6755066
1768871821683.319,1476.923076923077,,0,-1,1768871821.683319
1768871821691.1316,1477.6556776556777,,0,-1,1768871821.6911316
1768871821698.944,1476.923076923077,,0,-1,1768871821.698944
1768871821706.7566,1473.992673992674,,0,-1,1768871821.7067566
1768871821714.569,1468.8644688644688,,0,-1,1768871821.714569
1768871821722.3816,1465.201465201465,,0,-1,1768871821.7223816
1768871821730.194,1463.003663003663,,0,-1,1768871821.730194
1768871821738.0066,1460.805860805861,,0,-1,1768871821.7380066
1768871821745.819,1461.5384615384614,,0,-1,1768871821.745819
1768871821753.6316,1459.3406593406592,,0,-1,1768871821.7536316
1768871821761.444,1453.479853479853,,0,-1,1768871821.761444
1768871821769.2566,1446.8864468864467,,0,-1,1768871821.7692566
1768871821777.069,1442.4908424908424,,0,-1,1768871821.777069
1768871821784.8816,1439.5604395604394,,0,-1,1768871821.7848816
1768871821792.694,1433.6996336996335,,0,-1,1768871821.792694
1768871821800.5066,1428.5714285714284,,0,-1,1768871821.8005066
1768871821808.319,1421.245421245421,,0,-1,1768871821.808319
1768871821816.1316,1413.9194139194135,,0,-1,1768871821.8161316
1768871821823.944,1405.128205128205,,0,-1,1768871821.823944
1768871821831.7566,1399.2673992673992,,0,-1,1768871821.8317566
1768871821839.569,1389.7435897435896,,0,-1,1768871821.839569
1768871821847.3816,1380.2197802197802,,0,-1,1768871821.8473816
1768871821855.194,1372.8937728937728,,0,-1,1768871821.855194
1768871821863.0066,1369.230769230769,,0,-1,1768871821.8630066
1768871821870.819,1372.161172161172,,0,-1,1768871821.870819
1768871821878.6316,1379.4871794871794,,0,-1,1768871821.8786316
1768871821886.444,1389.7435897435896,,0,-1,1768871821.886444
1768871821894.2566,1397.069597069597,,0,-1,1768871821.8942566
1768871821902.069,1400.0,,0,-1,1768871821.902069
1768871821909.8816,1402.9304029304028,,0,-1,1768871821.9098816
1768871821917.694,1401.4652014652013,,0,-1,1768871821.917694
1768871821925.5066,1391.941391941392,,0,-1,1768871821.9255066
1768871821933.319,1381.6849816849815,,0,-1,1768871821.933319
1768871821941.1316,1371.428571428571,,0,-1,1768871821.9411316
1768871821948.944,1360.4395604395604,,0,-1,1768871821.948944
1768871821956.7566,1353.113553113553,,0,-1,1768871821.9567566
1768871821964.569,1345.7875457875457,,0,-1,1768871821.964569
1768871821972.3816,1339.92673992674,,0,-1,1768871821.9723816
1768871821980.194,1338.4615384615383,,0,-1,1768871821.980194
1768871821988.0066,1340.6593406593406,,0,-1,1768871821.9880066
1768871821995.819,1342.857142857143,,0,-1,1768871821.995819
1768871822003.6316,1342.857142857143,,0,-1,1768871822.0036316
1768871822011.444,1336.9963369963368,,0,-1,1768871822.011444
1768871822019.2566,1330.4029304029302,,0,-1,1768871822.0192566
1768871822027.069,1325.2747252747251,,0,-1,1768871822.027069
1768871822034.8816,1320.8791208791208,,0,-1,1768871822.0348816
1768871822042.694,1315.018315018315,,0,-1,1768871822.042694
1768871822050.5066,1309.1575091575091,,0,-1,1768871822.0505066
1768871822058.319,1305.4945054945051,,0,-1,1768871822.058319
1768871822066.1316,1303.2967032967033,,0,-1,1768871822.0661316
1768871822073.944,1305.4945054945051,,0,-1,1768871822.073944
1768871822081.7566,1309.1575091575091,,0,-1,1768871822.0817566
1768871822089.569,1312.8205128205127,,0,-1,1768871822.089569
1768871822097.3816,1312.8205128205127,,0,-1,1768871822.0973816
1768871822105.194,1312.087912087912,,0,-1,1768871822.105194
1768871822113.0066,1315.7509157509155,,0,-1,1768871822.1130066
1768871822120.819,1314.2857142857142,,0,-1,1768871822.120819
1768871822128.6316,1312.087912087912,,0,-1,1768871822.1286316
1768871822136.444,1312.8205128205127,,0,-1,1768871822.136444
1768871822144.2566,1317.9487179487178,,0,-1,1768871822.1442566
1768871822152.069,1323.076923076923,,0,-1,1768871822.152069
1768871822159.8816,1332.6007326007325,,0,-1,1768871822.1598816
1768871822167.694,1349.4505494505493,,0,-1,1768871822.167694
1768871822175.5066,1371.428571428571,,0,-1,1768871822.1755066
1768871822183.319,1394.139194139194,,0,-1,1768871822.183319
1768871822191.1316,1416.8498168498168,,0,-1,1768871822.1911316
1768871822198.944,1444.688644688645,,0,-1,1768871822.198944
1768871822206.7566,1467.3992673992673,,0,-1,1768871822.2067566
1768871822214.569,1491.5750915750914,,0,-1,1768871822.214569
1768871822222.3816,1506.227106227106,,0,-1,1768871822.2223816
1768871822230.194,1523.8095238095236,,0,-1,1768871822.230194
1768871822238.0066,1539.194139194139,,0,-1,1768871822.2380066
1768871822245.819,1555.311355311355,,0,-1,1768871822.245819
1768871822253.6316,1569.9633699633698,,0,-1,1768871822.2536316
1768871822261.444,1578.021978021978,,0,-1,1768871822.261444
1768871822269.2566,1588.278388278388,,0,-1,1768871822.2692566
1768871822277.069,1594.8717948717947,,0,-1,1768871822.277069
1768871822284.8816,1594.8717948717947,,0,-1,1768871822.2848816
1768871822292.694,1595.6043956043954,,0,-1,1768871822.292694
1768871822300.5066,1589.7435897435896,,0,-1,1768871822.3005066
1768871822308.319,1588.278388278388,,0,-1,1768871822.308319
1768871822316.1316,1579.4871794871794,,0,-1,1768871822.3161316
1768871822323.944,1572.8937728937728,,0,-1,1768871822.323944
1768871822331.7566,1560.4395604395604,,0,-1,1768871822.3317566
1768871822339.569,1549.4505494505493,,0,-1,1768871822.339569
1768871822347.3816,1533.3333333333333,,0,-1,1768871822.3473816
1768871822355.194,1523.0769230769229,,0,-1,1768871822.355194
1768871822363.0066,1510.6227106227104,,0,-1,1768871822.3630066
1768871822370.819,1504.0293040293038,,0,-1,1768871822.370819
1768871822378.6316,1493.040293040293,,0,-1,1768871822.3786316
1768871822386.444,1486.4468864468863,,0,-1,1768871822.386444
1768871822394.2566,1482.051282051282,,0,-1,1768871822.3942566
1768871822402.069,1473.992673992674,,0,-1,1768871822.402069
1768871822409.8816,1471.7948717948716,,0,-1,1768871822.4098816
1768871822417.694,1466.6666666666663,,0,-1,1768871822.417694
1768871822425.5066,1465.201465201465,,0,-1,1768871822.4255066
1768871822433.319,1459.3406593406592,,0,-1,1768871822.433319
1768871822441.1316,1455.6776556776556,,0,-1,1768871822.4411316
1768871822448.944,1452.7472527472526,,0,-1,1768871822.448944
1768871822456.7566,1446.8864468864467,,0,-1,1768871822.4567566
1768871822464.569,1446.153846153846,,0,-1,1768871822.464569
1768871822472.3816,1441.0256410256409,,0,-1,1768871822.4723816
1768871822480.194,1438.095238095238,,0,-1,1768871822.480194
1768871822488.0066,1435.164835164835,,0,-1,1768871822.4880066
1768871822495.819,1429.3040293040292,,0,-1,1768871822.495819
1768871822503.6316,1424.9084249084249,,0,-1,1768871822.5036316
1768871822511.444,1418.3150183150185,,0,-1,1768871822.511444
1768871822519.2566,1413.9194139194135,,0,-1,1768871822.5192566
1768871822527.069,1405.128205128205,,0,-1,1768871822.527069
1768871822534.8816,1394.8717948717947,,0,-1,1768871822.5348816
1768871822542.694,1382.4175824175825,,0,-1,1768871822.542694
1768871822550.5066,1372.8937728937728,,0,-1,1768871822.5505066
1768871822558.319,1364.8351648351647,,0,-1,1768871822.558319
1768871822566.1316,1357.5091575091574,,0,-1,1768871822.5661316
1768871822573.944,1350.9157509157508,,0,-1,1768871822.573944
1768871822581.7566,1342.857142857143,,0,-1,1768871822.5817566
1768871822589.569,1334.7985347985348,,0,-1,1768871822.589569
1768871822597.3816,1326.739926739927,,0,-1,1768871822.5973816
1768871822605.194,1320.14652014652,,0,-1,1768871822.605194
1768871822613.0066,1316.4835164835165,,0,-1,1768871822.6130066
1768871822620.819,1320.8791208791208,,0,-1,1768871822.620819
1768871822628.6316,1323.076923076923,,0,-1,1768871822.6286316
1768871822636.444,1328.2051282051282,,0,-1,1768871822.636444
1768871822644.2566,1330.4029304029302,,0,-1,1768871822.6442566
1768871822652.069,1331.135531135531,,0,-1,1768871822.652069
1768871822659.8816,1328.2051282051282,,0,-1,1768871822.6598816
1768871822667.694,1322.3443223443223,,0,-1,1768871822.667694
1768871822675.5066,1315.7509157509155,,0,-1,1768871822.6755066
1768871822683.319,1307.6923076923076,,0,-1,1768871822.683319
1768871822691.1316,1301.098901098901,,0,-1,1768871822.6911316
1768871822698.944,1295.970695970696,,0,-1,1768871822.698944
1768871822706.7566,1294.5054945054944,,0,-1,1768871822.7067566
1768871822714.569,1301.098901098901,,0,-1,1768871822.714569
1768871822722.3816,1310.6227106227104,,0,-1,1768871822.7223816
1768871822730.194,1324.5421245421244,,0,-1,1768871822.730194
1768871822738.0066,1343.5897435897434,,0,-1,1768871822.7380066
1768871822745.819,1372.8937728937728,,0,-1,1768871822.745819
1768871822753.6316,1404.3956043956043,,0,-1,1768871822.7536316
1768871822761.444,1432.9670329670328,,0,-1,1768871822.761444
1768871822769.2566,1462.2710622710622,,0,-1,1768871822.7692566
1768871822777.069,1492.3076923076922,,0,-1,1768871822.777069
1768871822784.8816,1521.6117216117216,,0,-1,1768871822.7848816
1768871822792.694,1546.5201465201465,,0,-1,1768871822.792694
1768871822800.5066,1567.7655677655678,,0,-1,1768871822.8005066
1768871822808.319,1580.2197802197802,,0,-1,1768871822.808319
1768871822816.1316,1588.278388278388,,0,-1,1768871822.8161316
1768871822823.944,1594.8717948717947,,0,-1,1768871822.823944
1768871822831.7566,1603.6630036630036,,0,-1,1768871822.8317566
1768871822839.569,1612.4542124542124,,0,-1,1768871822.839569
1768871822847.3816,1617.5824175824175,,0,-1,1768871822.8473816
1768871822855.194,1618.3150183150185,,1,3,1768871822.855194
1768871822863.0066,1616.117216117216,,1,3,1768871822.8630066
1768871822870.819,1612.4542124542124,,1,3,1768871822.870819
1768871822878.6316,1606.5934065934066,,1,3,1768871822.8786316
1768871822886.444,1595.6043956043954,,1,3,1768871822.886444
1768871822894.2566,1580.9523809523807,,1,3,1768871822.8942566
1768871822902.069,1561.9047619047617,,1,3,1768871822.902069
1768871822909.8816,1546.5201465201465,,1,3,1768871822.9098816
1768871822917.694,1526.739926739927,,1,3,1768871822.917694
1768871822925.5066,1509.89010989011,,1,3,1768871822.9255066
1768871822933.319,1490.10989010989,,1,3,1768871822.933319
1768871822941.1316,1471.7948717948716,,1,3,1768871822.9411316
1768871822948.944,1460.805860805861,,1,3,1768871822.948944
1768871822956.7566,1447.6190476190477,,1,3,1768871822.9567566
1768871822964.569,1441.7582417582416,,1,3,1768871822.964569
1768871822972.3816,1434.4322344322345,,1,3,1768871822.9723816
1768871822980.194,1426.3736263736262,,1,3,1768871822.980194
1768871822988.0066,1417.5824175824175,,1,3,1768871822.9880066
1768871822995.819,1409.5238095238094,,1,3,1768871822.995819
1768871823003.6316,1402.197802197802,,1,3,1768871823.0036316
1768871823011.444,1397.069597069597,,1,3,1768871823.011444
1768871823019.2566,1396.3369963369962,,1,3,1768871823.0192566
1768871823027.069,1398.5347985347985,,1,3,1768871823.027069
1768871823034.8816,1401.4652014652013,,1,3,1768871823.0348816
1768871823042.694,1402.9304029304028,,1,3,1768871823.042694
1768871823050.5066,1400.0,,1,3,1768871823.0505066
1768871823058.319,1394.139194139194,,1,3,1768871823.058319
1768871823066.1316,1383.150183150183,,1,3,1768871823.0661316
1768871823073.944,1371.428571428571,,1,3,1768871823.073944
1768871823081.7566,1364.102564102564,,1,3,1768871823.0817566
1768871823089.569,1357.5091575091574,,1,3,1768871823.089569
1768871823097.3816,1353.113553113553,,1,3,1768871823.0973816
1768871823105.194,1351.6483516483515,,1,3,1768871823.105194
1768871823113.0066,1353.113553113553,,1,3,1768871823.1130066
1768871823120.819,1351.6483516483515,,1,3,1768871823.120819
1768871823128.6316,1347.2527472527472,,1,3,1768871823.1286316
1768871823136.444,1340.6593406593406,,1,3,1768871823.136444
1768871823144.2566,1333.3333333333333,,1,3,1768871823.1442566
1768871823152.069,1326.007326007326,,1,3,1768871823.152069
1768871823159.8816,1323.8095238095236,,1,3,1768871823.1598816
1768871823167.694,1323.076923076923,,1,3,1768871823.167694
1768871823175.5066,1324.5421245421244,,1,3,1768871823.1755066
1768871823183.319,1323.8095238095236,,1,3,1768871823.183319
1768871823191.1316,1319.4139194139193,,1,3,1768871823.1911316
1768871823198.944,1316.4835164835165,,1,3,1768871823.198944
1768871823206.7566,1312.8205128205127,,1,3,1768871823.2067566
1768871823214.569,1309.89010989011,,1,3,1768871823.214569
1768871823222.3816,1309.1575091575091,,1,3,1768871823.2223816
1768871823230.194,1312.8205128205127,,1,3,1768871823.230194
1768871823238.0066,1313.5531135531137,,1,3,1768871823.2380066
1768871823245.819,1315.018315018315,,1,3,1768871823.245819
1768871823253.6316,1315.018315018315,,1,3,1768871823.2536316
1768871823261.444,1313.5531135531137,,1,3,1768871823.261444
1768871823269.2566,1309.89010989011,,1,3,1768871823.2692566
1768871823277.069,1309.89010989011,,1,3,1768871823.277069
1768871823284.8816,1307.6923076923076,,1,3,1768871823.2848816
1768871823292.694,1301.8315018315018,,1,3,1768871823.292694
1768871823300.5066,1303.2967032967033,,1,3,1768871823.3005066
1768871823308.319,1306.227106227106,,1,3,1768871823.308319
1768871823316.1316,1319.4139194139193,,1,3,1768871823.3161316
1768871823323.944,1341.3919413919414,,1,3,1768871823.323944
1768871823331.7566,1361.904761904762,,1,3,1768871823.3317566
1768871823339.569,1387.5457875457876,,1,3,1768871823.339569
1768871823347.3816,1415.3846153846152,,1,3,1768871823.3473816
1768871823355.194,1439.5604395604394,,1,3,1768871823.355194
1768871823363.0066,1466.6666666666663,,1,3,1768871823.3630066
1768871823370.819,1487.9120879120878,,1,3,1768871823.370819
1768871823378.6316,1503.2967032967033,,1,3,1768871823.3786316
1768871823386.444,1520.8791208791208,,1,3,1768871823.386444
1768871823394.2566,1531.8681318681315,,1,3,1768871823.3942566
1768871823402.069,1541.3919413919414,,1,3,1768871823.402069
1768871823409.8816,1544.3223443223442,,1,3,1768871823.4098816
1768871823417.694,1543.5897435897434,,1,3,1768871823.417694
1768871823425.5066,1540.6593406593406,,1,3,1768871823.4255066
1768871823433.319,1531.135531135531,,1,3,1768871823.433319
1768871823441.1316,1523.8095238095236,,1,3,1768871823.4411316
1768871823448.944,1513.5531135531137,,1,3,1768871823.448944
1768871823456.7566,1511.3553113553112,,1,3,1768871823.4567566
1768871823464.569,1502.5641025641023,,1,3,1768871823.464569
1768871823472.3816,1493.7728937728937,,1,3,1768871823.4723816
1768871823480.194,1479.8534798534797,,1,3,1768871823.480194
1768871823488.0066,1469.5970695970695,,1,3,1768871823.4880066
1768871823495.819,1459.3406593406592,,1,3,1768871823.495819
1768871823503.6316,1453.479853479853,,1,3,1768871823.5036316
1768871823511.444,1446.8864468864467,,1,3,1768871823.511444
1768871823519.2566,1433.6996336996335,,1,3,1768871823.5192566
1768871823527.069,1423.4432234432234,,1,3,1768871823.527069
1768871823534.8816,1410.989010989011,,1,3,1768871823.5348816
1768871823542.694,1402.197802197802,,1,3,1768871823.542694
1768871823550.5066,1397.069597069597,,1,3,1768871823.5505066
1768871823558.319,1387.5457875457876,,1,3,1768871823.558319
1768871823566.1316,1380.952380952381,,1,3,1768871823.5661316
1768871823573.944,1375.8241758241757,,1,3,1768871823.573944
1768871823581.7566,1369.9633699633698,,1,3,1768871823.5817566
1768871823589.569,1362.6373626373625,,1,3,1768871823.589569
1768871823597.3816,1358.974358974359,,1,3,1768871823.5973816
1768871823605.194,1349.4505494505493,,1,3,1768871823.605194
1768871823613.0066,1343.5897435897434,,1,3,1768871823.6130066
1768871823620.819,1338.4615384615383,,1,3,1768871823.620819
1768871823628.6316,1334.7985347985348,,1,3,1768871823.6286316
1768871823636.444,1334.7985347985348,,1,3,1768871823.636444
1768871823644.2566,1331.135531135531,,1,3,1768871823.6442566
1768871823652.069,1332.6007326007325,,1,3,1768871823.652069
1768871823659.8816,1331.8681318681315,,1,3,1768871823.6598816
1768871823667.694,1331.8681318681315,,1,3,1768871823.667694
1768871823675.5066,1337.7289377289376,,1,3,1768871823.6755066
1768871823683.319,1336.9963369963368,,1,3,1768871823.683319
1768871823691.1316,1336.263736263736,,1,3,1768871823.6911316
1768871823698.944,1336.9963369963368,,1,3,1768871823.698944
1768871823706.7566,1331.8681318681315,,1,3,1768871823.7067566
1768871823714.569,1332.6007326007325,,1,3,1768871823.714569
1768871823722.3816,1328.2051282051282,,1,3,1768871823.7223816
1768871823730.194,1323.8095238095236,,1,3,1768871823.730194
1768871823738.0066,1320.14652014652,,1,3,1768871823.7380066
1768871823745.819,1314.2857142857142,,1,3,1768871823.745819
1768871823753.6316,1310.6227106227104,,1,3,1768871823.7536316
1768871823761.444,1308.4249084249084,,1,3,1768871823.761444
1768871823769.2566,1303.2967032967033,,1,3,1768871823.7692566
1768871823777.069,1297.4358974358977,,1,3,1768871823.777069
1768871823784.8816,1297.4358974358977,,1,3,1768871823.7848816
1768871823792.694,1299.6336996336995,,1,3,1768871823.792694
1768871823800.5066,1304.7619047619046,,1,3,1768871823.8005066
1768871823808.319,1303.2967032967033,,1,3,1768871823.808319
1768871823816.1316,1299.6336996336995,,1,3,1768871823.8161316
1768871823823.944,1295.2380952380952,,1,3,1768871823.823944
1768871823831.7566,1289.3772893772891,,1,3,1768871823.8317566
1768871823839.569,1281.3186813186812,,1,3,1768871823.839569
1768871823847.3816,1273.992673992674,,1,3,1768871823.8473816
1768871823855.194,1266.6666666666663,,1,3,1768871823.855194
1768871823863.0066,1266.6666666666663,,1,3,1768871823.8630066
1768871823870.819,1271.062271062271,,1,3,1768871823.870819
1768871823878.6316,1281.3186813186812,,1,3,1768871823.8786316
1768871823886.444,1296.7032967032967,,1,3,1768871823.886444
1768871823894.2566,1317.9487179487178,,1,3,1768871823.8942566
1768871823902.069,1338.4615384615383,,1,3,1768871823.902069
1768871823909.8816,1357.5091575091574,,1,3,1768871823.9098816
1768871823917.694,1375.8241758241757,,1,3,1768871823.917694
1768871823925.5066,1394.139194139194,,1,3,1768871823.9255066
1768871823933.319,1416.8498168498168,,1,3,1768871823.933319
1768871823941.1316,1443.956043956044,,1,3,1768871823.9411316
1768871823948.944,1470.3296703296703,,1,3,1768871823.948944
1768871823956.7566,1489.3772893772891,,1,3,1768871823.9567566
1768871823964.569,1500.3663003663005,,1,3,1768871823.964569
1768871823972.3816,1504.7619047619046,,1,3,1768871823.9723816
1768871823980.194,1506.227106227106,,1,3,1768871823.980194
1768871823988.0066,1506.227106227106,,1,3,1768871823.9880066
1768871823995.819,1501.8315018315018,,1,3,1768871823.995819
1768871824003.6316,1495.970695970696,,1,3,1768871824.0036316
1768871824011.444,1490.8424908424906,,1,3,1768871824.011444
1768871824019.2566,1484.9816849816848,,1,3,1768871824.0192566
1768871824027.069,1476.923076923077,,1,3,1768871824.027069
1768871824034.8816,1470.3296703296703,,1,3,1768871824.0348816
1768871824042.694,1464.4688644688645,,1,3,1768871824.042694
1768871824050.5066,1459.3406593406592,,1,3,1768871824.0505066
1768871824058.319,1454.9450549450548,,1,3,1768871824.058319
1768871824066.1316,1449.8168498168498,,1,3,1768871824.0661316
1768871824073.944,1446.153846153846,,1,3,1768871824.073944
1768871824081.7566,1440.29304029304,,1,3,1768871824.0817566
1768871824089.569,1432.9670329670328,,1,3,1768871824.089569
1768871824097.3816,1427.106227106227,,1,3,1768871824.0973816
1768871824105.194,1419.7802197802198,,1,3,1768871824.105194
1768871824113.0066,1410.989010989011,,1,3,1768871824.1130066
1768871824120.819,1402.197802197802,,1,3,1768871824.120819
1768871824128.6316,1394.8717948717947,,1,3,1768871824.1286316
1768871824136.444,1390.4761904761904,,1,3,1768871824.136444
1768871824144.2566,1383.150183150183,,1,3,1768871824.1442566
1768871824152.069,1375.091575091575,,1,3,1768871824.152069
1768871824159.8816,1368.4981684981683,,1,3,1768871824.1598816
1768871824167.694,1362.6373626373625,,1,3,1768871824.167694
1768871824175.5066,1357.5091575091574,,1,3,1768871824.1755066
1768871824183.319,1354.5787545787546,,1,3,1768871824.183319
1768871824191.1316,1349.4505494505493,,1,3,1768871824.1911316
1768871824198.944,1342.124542124542,,1,3,1768871824.198944
1768871824206.7566,1342.857142857143,,1,3,1768871824.2067566
1768871824214.569,1340.6593406593406,,1,3,1768871824.214569
1768871824222.3816,1338.4615384615383,,1,3,1768871824.2223816
1768871824230.194,1335.5311355311355,,1,3,1768871824.230194
1768871824238.0066,1331.8681318681315,,1,3,1768871824.2380066
1768871824245.819,1329.6703296703297,,1,3,1768871824.245819
1768871824253.6316,1328.2051282051282,,1,3,1768871824.2536316
1768871824261.444,1326.007326007326,,1,3,1768871824.261444
1768871824269.2566,1322.3443223443223,,1,3,1768871824.2692566
1768871824277.069,1320.8791208791208,,1,3,1768871824.277069
1768871824284.912,1318.6813186813183,,1,3,1768871824.284912
1768871824292.694,1312.8205128205127,,1,3,1768871824.292694
1768871824300.5066,1306.9597069597069,,1,3,1768871824.3005066
1768871824308.319,1302.5641025641023,,1,3,1768871824.308319
1768871824316.1316,1301.8315018315018,,1,3,1768871824.3161316
1768871824323.944,1298.168498168498,,1,3,1768871824.323944
1768871824331.7566,1295.2380952380952,,1,3,1768871824.3317566
1768871824339.569,1292.3076923076922,,1,3,1768871824.339569
1768871824347.3816,1290.10989010989,,1,3,1768871824.3473816
1768871824355.194,1287.9120879120878,,1,3,1768871824.355194
1768871824363.0066,1283.5164835164835,,1,3,1768871824.3630066
1768871824370.819,1284.2490842490845,,1,3,1768871824.370819
1768871824378.6316,1283.5164835164835,,1,3,1768871824.3786316
1768871824386.444,1282.7838827838827,,1,3,1768871824.386444
1768871824394.2566,1282.7838827838827,,1,3,1768871824.3942566
1768871824402.069,1284.2490842490845,,1,3,1768871824.402069
1768871824409.8816,1289.3772893772891,,1,3,1768871824.4098816
1768871824417.694,1294.5054945054944,,1,3,1768871824.417694
1768871824425.5066,1298.168498168498,,1,3,1768871824.4255066
1768871824433.319,1309.1575091575091,,1,3,1768871824.433319
1768871824441.1316,1320.8791208791208,,1,3,1768871824.4411316
1768871824448.944,1336.263736263736,,1,3,1768871824.448944
1768871824456.7566,1353.8461538461538,,1,3,1768871824.4567566
1768871824464.569,1375.091575091575,,1,3,1768871824.464569
1768871824472.3816,1396.3369963369962,,1,3,1768871824.4723816
1768871824480.194,1413.9194139194135,,1,3,1768871824.480194
1768871824488.0066,1430.7692307692307,,1,3,1768871824.4880066
1768871824495.819,1449.084249084249,,0,-1,1768871824.495819
1768871824503.6316,1465.201465201465,,0,-1,1768871824.5036316
1768871824511.444,1479.8534798534797,,0,-1,1768871824.511444
1768871824519.2566,1498.168498168498,,0,-1,1768871824.5192566
1768871824527.069,1508.4249084249084,,0,-1,1768871824.527069
1768871824534.8816,1520.14652014652,,0,-1,1768871824.5348816
1768871824542.694,1527.4725274725274,,0,-1,1768871824.542694
1768871824550.5066,1525.2747252747251,,0,-1,1768871824.5505066
1768871824558.319,1520.14652014652,,0,-1,1768871824.558319
1768871824566.1316,1515.018315018315,,0,-1,1768871824.5661316
1768871824573.944,1506.9597069597069,,0,-1,1768871824.573944
1768871824581.7566,1501.098901098901,,0,-1,1768871824.5817566
1768871824589.569,1498.168498168498,,0,-1,1768871824.589569
1768871824597.3816,1490.10989010989,,0,-1,1768871824.5973816
1768871824605.194,1488.6446886446886,,0,-1,1768871824.605194
1768871824613.0066,1485.7142857142856,,0,-1,1768871824.6130066
1768871824620.819,1479.120879120879,,0,-1,1768871824.620819
1768871824628.6316,1473.992673992674,,0,-1,1768871824.6286316
1768871824636.444,1459.3406593406592,,0,-1,1768871824.636444
1768871824644.2566,1451.2820512820513,,0,-1,1768871824.6442566
1768871824652.069,1441.7582417582416,,0,-1,1768871824.652069
1768871824659.8816,1438.095238095238,,0,-1,1768871824.6598816
1768871824667.694,1428.5714285714284,,0,-1,1768871824.667694
1768871824675.5066,1422.7106227106226,,0,-1,1768871824.6755066
1768871824683.319,1414.6520146520145,,0,-1,1768871824.683319
1768871824691.1316,1407.3260073260071,,0,-1,1768871824.6911316
1768871824698.944,1400.7326007326003,,0,-1,1768871824.698944
1768871824706.7566,1393.4065934065934,,0,-1,1768871824.7067566
1768871824714.569,1389.7435897435896,,0,-1,1768871824.714569
1768871824722.3816,1378.7545787545787,,0,-1,1768871824.7223816
1768871824730.194,1371.428571428571,,0,-1,1768871824.730194
1768871824738.0066,1368.4981684981683,,0,-1,1768871824.7380066
1768871824745.819,1362.6373626373625,,0,-1,1768871824.745819
1768871824753.6316,1361.904761904762,,0,-1,1768871824.7536316
1768871824761.444,1356.7765567765566,,0,-1,1768871824.761444
1768871824769.2566,1350.9157509157508,,0,-1,1768871824.7692566
1768871824777.069,1345.7875457875457,,0,-1,1768871824.777069
1768871824784.8816,1341.3919413919414,,0,-1,1768871824.7848816
1768871824792.694,1337.7289377289376,,0,-1,1768871824.792694
1768871824800.5066,1329.6703296703297,,0,-1,1768871824.8005066
1768871824808.319,1326.007326007326,,0,-1,1768871824.808319
1768871824816.1316,1320.8791208791208,,0,-1,1768871824.8161316
1768871824823.944,1322.3443223443223,,0,-1,1768871824.823944
1768871824831.7566,1320.8791208791208,,0,-1,1768871824.8317566
1768871824839.569,1315.7509157509155,,0,-1,1768871824.839569
1768871824847.3816,1309.1575091575091,,0,-1,1768871824.8473816
1768871824855.194,1298.9010989010987,,0,-1,1768871824.855194
1768871824863.0066,1292.3076923076922,,0,-1,1768871824.8630066
1768871824870.819,1289.3772893772891,,0,-1,1768871824.870819
1768871824878.6316,1279.120879120879,,0,-1,1768871824.8786316
1768871824886.444,1275.4578754578754,,0,-1,1768871824.886444
1768871824894.2566,1273.992673992674,,0,-1,1768871824.8942566
1768871824902.069,1273.260073260073,,0,-1,1768871824.902069
1768871824909.8816,1276.923076923077,,0,-1,1768871824.9098816
1768871824917.694,1280.5860805860805,,0,-1,1768871824.917694
1768871824925.5066,1281.3186813186812,,0,-1,1768871824.9255066
1768871824933.319,1284.2490842490845,,0,-1,1768871824.933319
1768871824941.1316,1282.7838827838827,,0,-1,1768871824.9411316
1768871824948.944,1280.5860805860805,,0,-1,1768871824.948944
1768871824956.7566,1282.051282051282,,0,-1,1768871824.9567566
1768871824964.569,1278.3882783882782,,0,-1,1768871824.964569
1768871824972.3816,1279.120879120879,,0,-1,1768871824.9723816
1768871824980.194,1283.5164835164835,,0,-1,1768871824.980194
1768871824988.0066,1287.9120879120878,,0,-1,1768871824.9880066
1768871824995.819,1295.2380952380952,,0,-1,1768871824.995819
1768871825003.6316,1306.227106227106,,0,-1,1768871825.0036316
1768871825011.444,1321.6117216117216,,0,-1,1768871825.011444
1768871825019.2566,1339.92673992674,,0,-1,1768871825.0192566
1768871825027.069,1362.6373626373625,,0,-1,1768871825.027069
1768871825034.8816,1389.7435897435896,,0,-1,1768871825.0348816
1768871825042.694,1413.9194139194135,,0,-1,1768871825.042694
1768871825050.5066,1435.8974358974358,,0,-1,1768871825.0505066
1768871825058.319,1460.07326007326,,0,-1,1768871825.058319
1768871825066.1316,1484.9816849816848,,0,-1,1768871825.0661316
1768871825073.944,1501.8315018315018,,0,-1,1768871825.073944
1768871825081.7566,1517.216117216117,,0,-1,1768871825.0817566
1768871825089.569,1533.3333333333333,,0,-1,1768871825.089569
1768871825097.3816,1542.857142857143,,0,-1,1768871825.0973816
1768871825105.194,1550.18315018315,,0,-1,1768871825.105194
1768871825113.0066,1557.5091575091574,,0,-1,1768871825.1130066
1768871825120.819,1560.4395604395604,,0,-1,1768871825.120819
1768871825128.6316,1553.8461538461538,,0,-1,1768871825.1286316
1768871825136.444,1543.5897435897434,,0,-1,1768871825.136444
1768871825144.2566,1534.065934065934,,0,-1,1768871825.1442566
1768871825152.069,1529.6703296703297,,0,-1,1768871825.152069
1768871825159.8816,1525.2747252747251,,0,-1,1768871825.1598816
1768871825167.694,1518.6813186813183,,0,-1,1768871825.167694
1768871825175.5066,1509.1575091575091,,0,-1,1768871825.1755066
1768871825183.319,1498.9010989010987,,0,-1,1768871825.183319
1768871825191.1316,1487.9120879120878,,0,-1,1768871825.1911316
1768871825198.944,1475.4578754578754,,0,-1,1768871825.198944
1768871825206.7566,1460.07326007326,,0,-1,1768871825.2067566
1768871825214.569,1443.956043956044,,0,-1,1768871825.214569
1768871825222.3816,1425.6410256410256,,0,-1,1768871825.2223816
1768871825230.194,1412.4542124542124,,0,-1,1768871825.230194
1768871825238.0066,1405.128205128205,,0,-1,1768871825.2380066
1768871825245.819,1402.9304029304028,,0,-1,1768871825.245819
1768871825253.6316,1401.4652014652013,,0,-1,1768871825.2536316
1768871825261.444,1400.7326007326003,,0,-1,1768871825.261444
1768871825269.2566,1395.6043956043954,,0,-1,1768871825.2692566
1768871825277.069,1388.278388278388,,0,-1,1768871825.277069
1768871825284.8816,1380.2197802197802,,0,-1,1768871825.2848816
1768871825292.694,1374.3589743589744,,0,-1,1768871825.292694
1768871825300.5066,1369.230769230769,,0,-1,1768871825.3005066
1768871825308.319,1366.3003663003662,,0,-1,1768871825.308319
1768871825316.1316,1365.5677655677655,,0,-1,1768871825.3161316
1768871825323.944,1366.3003663003662,,0,-1,1768871825.323944
1768871825331.7566,1370.6959706959706,,0,-1,1768871825.3317566
1768871825339.569,1375.091575091575,,0,-1,1768871825.339569
1768871825347.3816,1376.5567765567764,,0,-1,1768871825.3473816
1768871825355.194,1378.021978021978,,0,-1,1768871825.355194
1768871825363.0066,1377.2893772893772,,0,-1,1768871825.3630066
1768871825370.819,1372.8937728937728,,0,-1,1768871825.370819
1768871825378.6316,1370.6959706959706,,0,-1,1768871825.3786316
1768871825386.444,1369.9633699633698,,0,-1,1768871825.386444
1768871825394.2566,1367.7655677655678,,0,-1,1768871825.3942566
1768871825402.069,1365.5677655677655,,0,-1,1768871825.402069
1768871825409.8816,1359.7069597069597,,0,-1,1768871825.4098816
1768871825417.694,1351.6483516483515,,0,-1,1768871825.417694
1768871825425.5066,1344.3223443223442,,0,-1,1768871825.4255066
1768871825433.319,1335.5311355311355,,0,-1,1768871825.433319
1768871825441.1316,1324.5421245421244,,0,-1,1768871825.4411316
1768871825448.944,1314.2857142857142,,0,-1,1768871825.448944
1768871825456.7566,1306.9597069597069,,0,-1,1768871825.4567566
1768871825464.569,1302.5641025641023,,0,-1,1768871825.464569
1768871825472.3816,1295.970695970696,,0,-1,1768871825.4723816
1768871825480.194,1290.8424908424909,,0,-1,1768871825.480194
1768871825488.0066,1286.4468864468863,,0,-1,1768871825.4880066
1768871825495.819,1282.7838827838827,,0,-1,1768871825.495819
1768871825503.6316,1278.3882783882782,,0,-1,1768871825.5036316
1768871825511.444,1276.190476190476,,0,-1,1768871825.511444
1768871825519.2566,1276.190476190476,,0,-1,1768871825.5192566
1768871825527.069,1276.923076923077,,0,-1,1768871825.527069
1768871825534.8816,1280.5860805860805,,0,-1,1768871825.5348816
1768871825542.694,1287.179487179487,,0,-1,1768871825.542694
1768871825550.5066,1297.4358974358977,,0,-1,1768871825.5505066
1768871825558.319,1315.7509157509155,,0,-1,1768871825.558319
1768871825566.1316,1338.4615384615383,,0,-1,1768871825.5661316
1768871825573.944,1364.8351648351647,,0,-1,1768871825.573944
1768871825581.7566,1394.139194139194,,0,-1,1768871825.5817566
1768871825589.569,1423.4432234432234,,0,-1,1768871825.589569
1768871825597.3816,1452.014652014652,,0,-1,1768871825.5973816
1768871825605.194,1476.190476190476,,0,-1,1768871825.605194
1768871825613.0066,1497.4358974358972,,0,-1,1768871825.6130066
1768871825620.819,1511.3553113553112,,0,-1,1768871825.620819
1768871825628.6316,1522.3443223443223,,0,-1,1768871825.6286316
1768871825636.444,1529.6703296703297,,0,-1,1768871825.636444
1768871825644.2566,1530.4029304029302,,0,-1,1768871825.6442566
1768871825652.069,1526.007326007326,,0,-1,1768871825.652069
1768871825659.8816,1522.3443223443223,,0,-1,1768871825.6598816
1768871825667.694,1517.9487179487178,,0,-1,1768871825.667694
1768871825675.5066,1512.8205128205127,,0,-1,1768871825.6755066
1768871825683.319,1505.4945054945051,,0,-1,1768871825.683319
1768871825691.1316,1496.7032967032967,,0,-1,1768871825.6911316
1768871825698.944,1484.9816849816848,,0,-1,1768871825.698944
1768871825706.7566,1473.260073260073,,0,-1,1768871825.7067566
1768871825714.569,1462.2710622710622,,0,-1,1768871825.714569
1768871825722.3816,1452.7472527472526,,0,-1,1768871825.7223816
1768871825730.194,1442.4908424908424,,0,-1,1768871825.730194
1768871825738.0066,1435.8974358974358,,0,-1,1768871825.7380066
1768871825745.819,1432.2344322344322,,0,-1,1768871825.745819
1768871825753.6316,1427.8388278388277,,0,-1,1768871825.7536316
1768871825761.444,1420.5128205128203,,0,-1,1768871825.761444
1768871825769.2566,1406.5934065934066,,0,-1,1768871825.7692566
1768871825777.069,1393.4065934065934,,0,-1,1768871825.777069
1768871825784.912,1386.080586080586,,0,-1,1768871825.784912
1768871825792.694,1380.2197802197802,,0,-1,1768871825.792694
1768871825800.5066,1381.6849816849815,,0,-1,1768871825.8005066
1768871825808.319,1381.6849816849815,,0,-1,1768871825.808319
1768871825816.1316,1382.4175824175825,,0,-1,1768871825.8161316
1768871825823.944,1383.150183150183,,0,-1,1768871825.823944
1768871825831.7566,1381.6849816849815,,0,-1,1768871825.8317566
1768871825839.569,1380.2197802197802,,0,-1,1768871825.839569
1768871825847.3816,1379.4871794871794,,0,-1,1768871825.8473816
1768871825855.194,1371.428571428571,,0,-1,1768871825.855194
1768871825863.0066,1367.032967032967,,0,-1,1768871825.8630066
1768871825870.819,1364.8351648351647,,0,-1,1768871825.870819
1768871825878.6316,1358.974358974359,,0,-1,1768871825.8786316
1768871825886.444,1349.4505494505493,,0,-1,1768871825.886444
1768871825894.2566,1339.92673992674,,0,-1,1768871825.8942566
1768871825902.069,1335.5311355311355,,0,-1,1768871825.902069
1768871825909.8816,1331.135531135531,,0,-1,1768871825.9098816
1768871825917.694,1328.937728937729,,0,-1,1768871825.917694
1768871825925.5066,1333.3333333333333,,0,-1,1768871825.9255066
1768871825933.319,1340.6593406593406,,0,-1,1768871825.933319
1768871825941.1316,1345.7875457875457,,0,-1,1768871825.9411316
1768871825948.944,1346.5201465201465,,0,-1,1768871825.948944
1768871825956.7566,1348.7179487179487,,0,-1,1768871825.9567566
1768871825964.569,1350.9157509157508,,0,-1,1768871825.964569
1768871825972.3816,1348.7179487179487,,0,-1,1768871825.9723816
1768871825980.194,1347.985347985348,,0,-1,1768871825.980194
1768871825988.0066,1341.3919413919414,,0,-1,1768871825.9880066
1768871825995.819,1332.6007326007325,,0,-1,1768871825.995819
1768871826003.6316,1323.076923076923,,0,-1,1768871826.0036316
1768871826011.444,1315.7509157509155,,0,-1,1768871826.011444
1768871826019.2566,1312.087912087912,,0,-1,1768871826.0192566
1768871826027.069,1305.4945054945051,,0,-1,1768871826.027069
1768871826034.8816,1300.3663003663005,,0,-1,1768871826.0348816
1768871826042.694,1294.5054945054944,,0,-1,1768871826.042694
1768871826050.5066,1286.4468864468863,,0,-1,1768871826.0505066
1768871826058.319,1282.051282051282,,0,-1,1768871826.058319
1768871826066.1316,1279.8534798534797,,0,-1,1768871826.0661316
1768871826073.944,1275.4578754578754,,0,-1,1768871826.073944
1768871826081.7566,1269.5970695970695,,0,-1,1768871826.0817566
1768871826089.569,1272.5274725274724,,0,-1,1768871826.089569
1768871826097.3816,1275.4578754578754,,0,-1,1768871826.0973816
1768871826105.194,1278.3882783882782,,0,-1,1768871826.105194
1768871826113.0066,1281.3186813186812,,0,-1,1768871826.1130066
1768871826120.819,1287.179487179487,,1,4,1768871826.120819
1768871826128.6316,1296.7032967032967,,1,4,1768871826.1286316
1768871826136.444,1316.4835164835165,,1,4,1768871826.136444
1768871826144.2566,1334.7985347985348,,1,4,1768871826.1442566
1768871826152.069,1357.5091575091574,,1,4,1768871826.152069
1768871826159.8816,1386.8131868131868,,1,4,1768871826.1598816
1768871826167.694,1413.1868131868132,,1,4,1768871826.167694
1768871826175.5066,1437.362637362637,,1,4,1768871826.1755066
1768871826183.319,1458.6080586080584,,1,4,1768871826.183319
1768871826191.1316,1477.6556776556777,,1,4,1768871826.1911316
1768871826198.944,1489.3772893772891,,1,4,1768871826.198944
1768871826206.7566,1494.5054945054944,,1,4,1768871826.2067566
1768871826214.569,1499.6336996336995,,1,4,1768871826.214569
1768871826222.3816,1496.7032967032967,,1,4,1768871826.2223816
1768871826230.194,1494.5054945054944,,1,4,1768871826.230194
1768871826238.0066,1482.7838827838827,,1,4,1768871826.2380066
1768871826245.819,1473.260073260073,,1,4,1768871826.245819
1768871826253.6316,1460.805860805861,,1,4,1768871826.2536316
1768871826261.444,1450.5494505494505,,1,4,1768871826.261444
1768871826269.2566,1436.6300366300366,,1,4,1768871826.2692566
1768871826277.069,1427.8388278388277,,1,4,1768871826.277069
1768871826284.8816,1410.2564102564102,,1,4,1768871826.2848816
1768871826292.694,1397.8021978021975,,1,4,1768871826.292694
1768871826300.5066,1380.2197802197802,,1,4,1768871826.3005066
1768871826308.319,1367.7655677655678,,1,4,1768871826.308319
1768871826316.1316,1356.043956043956,,1,4,1768871826.3161316
1768871826323.944,1347.985347985348,,1,4,1768871826.323944
1768871826331.7566,1345.054945054945,,1,4,1768871826.3317566
1768871826339.569,1342.857142857143,,1,4,1768871826.339569
1768871826347.3816,1350.18315018315,,1,4,1768871826.3473816
1768871826355.194,1354.5787545787546,,1,4,1768871826.355194
1768871826363.0066,1361.904761904762,,1,4,1768871826.3630066
1768871826370.819,1366.3003663003662,,1,4,1768871826.370819
1768871826378.6316,1372.161172161172,,1,4,1768871826.3786316
1768871826386.444,1375.8241758241757,,1,4,1768871826.386444
1768871826394.2566,1375.091575091575,,1,4,1768871826.3942566
1768871826402.069,1378.021978021978,,1,4,1768871826.402069
1768871826409.8816,1375.8241758241757,,1,4,1768871826.4098816
1768871826417.694,1370.6959706959706,,1,4,1768871826.417694
1768871826425.5066,1367.032967032967,,1,4,1768871826.4255066
1768871826433.319,1361.1721611721612,,1,4,1768871826.433319
1768871826441.1316,1354.5787545787546,,1,4,1768871826.4411316
1768871826448.944,1350.18315018315,,1,4,1768871826.448944
1768871826456.7566,1347.985347985348,,1,4,1768871826.4567566
1768871826464.569,1342.124542124542,,1,4,1768871826.464569
1768871826472.3816,1336.263736263736,,1,4,1768871826.4723816
1768871826480.194,1334.065934065934,,1,4,1768871826.480194
1768871826488.0066,1328.937728937729,,1,4,1768871826.4880066
1768871826495.819,1322.3443223443223,,1,4,1768871826.495819
1768871826503.6316,1318.6813186813183,,1,4,1768871826.5036316
1768871826511.444,1312.8205128205127,,1,4,1768871826.511444
1768871826519.2566,1304.7619047619046,,1,4,1768871826.5192566
1768871826527.069,1294.5054945054944,,1,4,1768871826.527069
1768871826534.8816,1286.4468864468863,,1,4,1768871826.5348816
1768871826542.694,1283.5164835164835,,1,4,1768871826.542694
1768871826550.5066,1280.5860805860805,,1,4,1768871826.5505066
1768871826558.319,1276.923076923077,,1,4,1768871826.558319
1768871826566.1316,1276.923076923077,,1,4,1768871826.5661316
1768871826573.944,1276.190476190476,,1,4,1768871826.573944
1768871826581.7566,1279.120879120879,,1,4,1768871826.5817566
1768871826589.569,1284.2490842490845,,1,4,1768871826.589569
1768871826597.3816,1287.9120879120878,,1,4,1768871826.5973816
1768871826605.194,1293.040293040293,,1,4,1768871826.605194
1768871826613.0066,1293.040293040293,,1,4,1768871826.6130066
1768871826620.819,1290.10989010989,,1,4,1768871826.620819
1768871826628.6316,1284.9816849816848,,1,4,1768871826.6286316
1768871826636.444,1278.3882783882782,,1,4,1768871826.636444
1768871826644.2566,1269.5970695970695,,1,4,1768871826.6442566
1768871826652.069,1257.142857142857,,1,4,1768871826.652069
1768871826659.8816,1243.956043956044,,1,4,1768871826.6598816
1768871826667.694,1231.5018315018317,,1,4,1768871826.667694
1768871826675.5066,1227.106227106227,,1,4,1768871826.6755066
1768871826683.319,1227.8388278388277,,1,4,1768871826.683319
1768871826691.1316,1234.4322344322345,,1,4,1768871826.6911316
1768871826698.944,1246.8864468864467,,1,4,1768871826.698944
1768871826706.7566,1266.6666666666663,,1,4,1768871826.7067566
1768871826714.569,1287.9120879120878,,1,4,1768871826.714569
1768871826722.3816,1311.3553113553112,,1,4,1768871826.7223816
1768871826730.194,1339.194139194139,,1,4,1768871826.730194
1768871826738.0066,1367.7655677655678,,1,4,1768871826.7380066
1768871826745.819,1393.4065934065934,,1,4,1768871826.745819
1768871826753.6316,1413.1868131868132,,1,4,1768871826.7536316
1768871826761.444,1429.3040293040292,,1,4,1768871826.761444
1768871826769.2566,1441.7582417582416,,1,4,1768871826.7692566
1768871826777.069,1447.6190476190477,,1,4,1768871826.777069
1768871826784.8816,1450.5494505494505,,1,4,1768871826.7848816
1768871826792.694,1450.5494505494505,,1,4,1768871826.792694
1768871826800.5066,1445.4212454212454,,1,4,1768871826.8005066
1768871826808.319,1439.5604395604394,,1,4,1768871826.808319
1768871826816.1316,1431.5018315018317,,1,4,1768871826.8161316
1768871826823.944,1418.3150183150185,,1,4,1768871826.823944
1768871826831.7566,1405.128205128205,,1,4,1768871826.8317566
1768871826839.569,1389.7435897435896,,1,4,1768871826.839569
1768871826847.3816,1375.8241758241757,,1,4,1768871826.8473816
1768871826855.194,1364.102564102564,,1,4,1768871826.855194
1768871826863.0066,1353.113553113553,,1,4,1768871826.8630066
1768871826870.819,1343.5897435897434,,1,4,1768871826.870819
1768871826878.6316,1335.5311355311355,,1,4,1768871826.8786316
1768871826886.444,1325.2747252747251,,1,4,1768871826.886444
1768871826894.2566,1320.14652014652,,1,4,1768871826.8942566
1768871826902.069,1317.9487179487178,,1,4,1768871826.902069
1768871826909.8816,1318.6813186813183,,1,4,1768871826.9098816
1768871826917.694,1320.14652014652,,1,4,1768871826.917694
1768871826925.5066,1322.3443223443223,,1,4,1768871826.9255066
1768871826933.319,1324.5421245421244,,1,4,1768871826.933319
1768871826941.1316,1328.2051282051282,,1,4,1768871826.9411316
1768871826948.944,1332.6007326007325,,1,4,1768871826.948944
1768871826956.7566,1336.9963369963368,,1,4,1768871826.9567566
1768871826964.569,1340.6593406593406,,1,4,1768871826.964569
1768871826972.3816,1343.5897435897434,,1,4,1768871826.9723816
1768871826980.194,1345.7875457875457,,1,4,1768871826.980194
1768871826988.0066,1347.985347985348,,1,4,1768871826.9880066
1768871826995.819,1348.7179487179487,,1,4,1768871826.995819
1768871827003.6316,1349.4505494505493,,1,4,1768871827.0036316
1768871827011.444,1349.4505494505493,,1,4,1768871827.011444
1768871827019.2566,1343.5897435897434,,1,4,1768871827.0192566
1768871827027.069,1335.5311355311355,,1,4,1768871827.027069
1768871827034.8816,1327.4725274725274,,1,4,1768871827.0348816
1768871827042.694,1318.6813186813183,,1,4,1768871827.042694
1768871827050.5066,1311.3553113553112,,1,4,1768871827.0505066
1768871827058.319,1303.2967032967033,,1,4,1768871827.058319
1768871827066.1316,1293.7728937728937,,1,4,1768871827.0661316
1768871827073.944,1286.4468864468863,,1,4,1768871827.073944
1768871827081.7566,1283.5164835164835,,1,4,1768871827.0817566
1768871827089.569,1282.7838827838827,,1,4,1768871827.089569
1768871827097.3816,1285.7142857142856,,1,4,1768871827.0973816
1768871827105.194,1286.4468864468863,,1,4,1768871827.105194
1768871827113.0066,1285.7142857142856,,1,4,1768871827.1130066
1768871827120.819,1282.7838827838827,,1,4,1768871827.120819
1768871827128.6316,1282.051282051282,,1,4,1768871827.1286316
1768871827136.444,1283.5164835164835,,1,4,1768871827.136444
1768871827144.2566,1288.6446886446886,,1,4,1768871827.1442566
1768871827152.069,1293.7728937728937,,1,4,1768871827.152069
1768871827159.8816,1298.9010989010987,,1,4,1768871827.1598816
1768871827167.694,1304.0293040293038,,1,4,1768871827.167694
1768871827175.5066,1305.4945054945051,,1,4,1768871827.1755066
1768871827183.319,1304.0293040293038,,1,4,1768871827.183319
1768871827191.1316,1301.098901098901,,1,4,1768871827.1911316
1768871827198.944,1296.7032967032967,,1,4,1768871827.198944
1768871827206.7566,1290.8424908424909,,1,4,1768871827.2067566
1768871827214.569,1285.7142857142856,,1,4,1768871827.214569
1768871827222.3816,1277.6556776556777,,1,4,1768871827.2223816
1768871827230.194,1267.3992673992673,,1,4,1768871827.230194
1768871827238.0066,1261.5384615384614,,1,4,1768871827.2380066
1768871827245.819,1255.6776556776556,,1,4,1768871827.245819
1768871827253.6316,1250.5494505494505,,1,4,1768871827.2536316
1768871827261.444,1250.5494505494505,,1,4,1768871827.261444
1768871827269.2566,1257.875457875458,,1,4,1768871827.2692566
1768871827277.069,1271.062271062271,,1,4,1768871827.277069
1768871827284.8816,1285.7142857142856,,1,4,1768871827.2848816
1768871827292.694,1301.098901098901,,1,4,1768871827.292694
1768871827300.5066,1318.6813186813183,,1,4,1768871827.3005066
1768871827308.319,1332.6007326007325,,1,4,1768871827.308319
1768871827316.1316,1345.7875457875457,,1,4,1768871827.3161316
1768871827323.944,1360.4395604395604,,1,4,1768871827.323944
1768871827331.7566,1364.8351648351647,,1,4,1768871827.3317566
1768871827339.569,1372.8937728937728,,1,4,1768871827.339569
1768871827347.3816,1381.6849816849815,,1,4,1768871827.3473816
1768871827355.194,1390.4761904761904,,1,4,1768871827.355194
1768871827363.0066,1398.5347985347985,,1,4,1768871827.3630066
1768871827370.819,1405.8608058608058,,1,4,1768871827.370819
1768871827378.6316,1410.989010989011,,1,4,1768871827.3786316
1768871827386.444,1411.7216117216117,,1,4,1768871827.386444
1768871827394.2566,1409.5238095238094,,1,4,1768871827.3942566
1768871827402.069,1406.5934065934066,,1,4,1768871827.402069
1768871827409.8816,1396.3369963369962,,1,4,1768871827.4098816
1768871827417.694,1391.941391941392,,1,4,1768871827.417694
1768871827425.5066,1388.278388278388,,1,4,1768871827.4255066
1768871827433.319,1379.4871794871794,,1,4,1768871827.433319
1768871827441.1316,1375.8241758241757,,1,4,1768871827.4411316
1768871827448.944,1368.4981684981683,,1,4,1768871827.448944
1768871827456.7566,1357.5091575091574,,1,4,1768871827.4567566
1768871827464.569,1348.7179487179487,,1,4,1768871827.464569
1768871827472.3816,1333.3333333333333,,1,4,1768871827.4723816
1768871827480.194,1324.5421245421244,,1,4,1768871827.480194
1768871827488.0066,1322.3443223443223,,1,4,1768871827.4880066
1768871827495.819,1318.6813186813183,,1,4,1768871827.495819
1768871827503.6316,1315.7509157509155,,1,4,1768871827.5036316
1768871827511.444,1312.8205128205127,,1,4,1768871827.511444
1768871827519.2566,1309.89010989011,,1,4,1768871827.5192566
1768871827527.069,1305.4945054945051,,1,4,1768871827.527069
1768871827534.8816,1300.3663003663005,,1,4,1768871827.5348816
1768871827542.694,1298.9010989010987,,1,4,1768871827.542694
1768871827550.5066,1301.8315018315018,,1,4,1768871827.5505066
1768871827558.319,1306.9597069597069,,1,4,1768871827.558319
1768871827566.1316,1310.6227106227104,,1,4,1768871827.5661316
1768871827573.944,1313.5531135531137,,1,4,1768871827.573944
1768871827581.7566,1318.6813186813183,,1,4,1768871827.5817566
1768871827589.569,1322.3443223443223,,1,4,1768871827.589569
1768871827597.3816,1323.076923076923,,1,4,1768871827.5973816
1768871827605.194,1330.4029304029302,,1,4,1768871827.605194
1768871827613.0066,1338.4615384615383,,1,4,1768871827.6130066
1768871827620.819,1340.6593406593406,,1,4,1768871827.620819
1768871827628.6316,1346.5201465201465,,1,4,1768871827.6286316
1768871827636.444,1347.2527472527472,,1,4,1768871827.636444
1768871827644.2566,1342.124542124542,,1,4,1768871827.6442566
1768871827652.069,1338.4615384615383,,0,-1,1768871827.652069
1768871827659.8816,1332.6007326007325,,0,-1,1768871827.6598816
1768871827667.694,1324.5421245421244,,0,-1,1768871827.667694
1768871827675.5066,1320.8791208791208,,0,-1,1768871827.6755066
1768871827683.319,1312.8205128205127,,0,-1,1768871827.683319
1768871827691.1316,1312.087912087912,,0,-1,1768871827.6911316
1768871827698.944,1312.087912087912,,0,-1,1768871827.698944
1768871827706.7566,1311.3553113553112,,0,-1,1768871827.7067566
1768871827714.569,1317.9487179487178,,0,-1,1768871827.714569
1768871827722.3816,1319.4139194139193,,0,-1,1768871827.7223816
1768871827730.194,1323.8095238095236,,0,-1,1768871827.730194
1768871827738.0066,1320.8791208791208,,0,-1,1768871827.7380066
1768871827745.819,1318.6813186813183,,0,-1,1768871827.745819
1768871827753.6316,1311.3553113553112,,0,-1,1768871827.7536316
1768871827761.444,1304.0293040293038,,0,-1,1768871827.761444
1768871827769.2566,1303.2967032967033,,0,-1,1768871827.7692566
1768871827777.069,1298.168498168498,,0,-1,1768871827.777069
1768871827784.8816,1295.2380952380952,,0,-1,1768871827.7848816
1768871827792.694,1290.10989010989,,0,-1,1768871827.792694
1768871827800.5066,1287.179487179487,,0,-1,1768871827.8005066
1768871827808.319,1284.2490842490845,,0,-1,1768871827.808319
1768871827816.1316,1277.6556776556777,,0,-1,1768871827.8161316
1768871827823.944,1274.7252747252746,,0,-1,1768871827.823944
1768871827831.7566,1269.5970695970695,,0,-1,1768871827.8317566
1768871827839.569,1267.3992673992673,,0,-1,1768871827.839569
1768871827847.3816,1263.003663003663,,0,-1,1768871827.8473816
1768871827855.194,1268.8644688644688,,0,-1,1768871827.855194
1768871827863.0066,1276.190476190476,,0,-1,1768871827.8630066
1768871827870.819,1288.6446886446886,,0,-1,1768871827.870819
1768871827878.6316,1301.098901098901,,0,-1,1768871827.8786316
1768871827886.444,1309.89010989011,,0,-1,1768871827.886444
1768871827894.2566,1324.5421245421244,,0,-1,1768871827.8942566
1768871827902.069,1334.065934065934,,0,-1,1768871827.902069
1768871827909.8816,1350.18315018315,,0,-1,1768871827.9098816
1768871827917.694,1361.904761904762,,0,-1,1768871827.917694
1768871827925.5066,1376.5567765567764,,0,-1,1768871827.9255066
1768871827933.319,1383.150183150183,,0,-1,1768871827.933319
1768871827941.1316,1389.7435897435896,,0,-1,1768871827.9411316
1768871827948.944,1394.8717948717947,,0,-1,1768871827.948944
1768871827956.7566,1397.8021978021975,,0,-1,1768871827.9567566
1768871827964.569,1400.7326007326003,,0,-1,1768871827.964569
1768871827972.3816,1405.128205128205,,0,-1,1768871827.9723816
1768871827980.194,1408.7912087912086,,0,-1,1768871827.980194
1768871827988.0066,1410.989010989011,,0,-1,1768871827.9880066
1768871827995.819,1410.989010989011,,0,-1,1768871827.995819
1768871828003.6316,1413.9194139194135,,0,-1,1768871828.0036316
1768871828011.444,1409.5238095238094,,0,-1,1768871828.011444
1768871828019.2566,1405.8608058608058,,0,-1,1768871828.0192566
1768871828027.069,1401.4652014652013,,0,-1,1768871828.027069
1768871828034.8816,1395.6043956043954,,0,-1,1768871828.0348816
1768871828042.694,1393.4065934065934,,0,-1,1768871828.042694
1768871828050.5066,1391.2087912087911,,0,-1,1768871828.0505066
1768871828058.319,1388.278388278388,,0,-1,1768871828.058319
1768871828066.1316,1385.3479853479853,,0,-1,1768871828.0661316
1768871828073.944,1375.091575091575,,0,-1,1768871828.073944
1768871828081.7566,1365.5677655677655,,0,-1,1768871828.0817566
1768871828089.569,1359.7069597069597,,0,-1,1768871828.089569
1768871828097.3816,1356.043956043956,,0,-1,1768871828.0973816
1768871828105.194,1353.113553113553,,0,-1,1768871828.105194
1768871828113.0066,1358.974358974359,,0,-1,1768871828.1130066
1768871828120.819,1362.6373626373625,,0,-1,1768871828.120819
1768871828128.6316,1364.102564102564,,0,-1,1768871828.1286316
1768871828136.444,1368.4981684981683,,0,-1,1768871828.136444
1768871828144.2566,1367.7655677655678,,0,-1,1768871828.1442566
1768871828152.069,1367.7655677655678,,0,-1,1768871828.152069
1768871828159.8816,1365.5677655677655,,0,-1,1768871828.1598816
1768871828167.694,1356.7765567765566,,0,-1,1768871828.167694
1768871828175.5066,1347.985347985348,,0,-1,1768871828.1755066
1768871828183.319,1343.5897435897434,,0,-1,1768871828.183319
1768871828191.1316,1337.7289377289376,,0,-1,1768871828.1911316
1768871828198.944,1331.8681318681315,,0,-1,1768871828.198944
1768871828206.7566,1328.937728937729,,0,-1,1768871828.2067566
1768871828214.569,1326.739926739927,,0,-1,1768871828.214569
1768871828222.3816,1323.8095238095236,,0,-1,1768871828.2223816
1768871828230.194,1320.8791208791208,,0,-1,1768871828.230194
1768871828238.0066,1317.216117216117,,0,-1,1768871828.2380066
1768871828245.819,1316.4835164835165,,0,-1,1768871828.245819
1768871828253.6316,1315.018315018315,,0,-1,1768871828.2536316
1768871828261.444,1316.4835164835165,,0,-1,1768871828.261444
1768871828269.2566,1318.6813186813183,,0,-1,1768871828.2692566
1768871828277.069,1319.4139194139193,,0,-1,1768871828.277069
1768871828284.8816,1320.8791208791208,,0,-1,1768871828.2848816
1768871828292.694,1319.4139194139193,,0,-1,1768871828.292694
1768871828300.5066,1315.7509157509155,,0,-1,1768871828.3005066
1768871828308.319,1315.018315018315,,0,-1,1768871828.308319
1768871828316.1316,1312.8205128205127,,0,-1,1768871828.3161316
1768871828323.944,1306.9597069597069,,0,-1,1768871828.323944
1768871828331.7566,1300.3663003663005,,0,-1,1768871828.3317566
1768871828339.569,1298.168498168498,,0,-1,1768871828.339569
1768871828347.3816,1297.4358974358977,,0,-1,1768871828.3473816
1768871828355.194,1299.6336996336995,,0,-1,1768871828.355194
1768871828363.0066,1304.0293040293038,,0,-1,1768871828.3630066
1768871828370.819,1308.4249084249084,,0,-1,1768871828.370819
1768871828378.6316,1307.6923076923076,,0,-1,1768871828.3786316
1768871828386.444,1303.2967032967033,,0,-1,1768871828.386444
1768871828394.2566,1301.098901098901,,0,-1,1768871828.3942566
1768871828402.069,1296.7032967032967,,0,-1,1768871828.402069
1768871828409.8816,1287.9120879120878,,0,-1,1768871828.4098816
1768871828417.694,1283.5164835164835,,0,-1,1768871828.417694
1768871828425.5066,1285.7142857142856,,0,-1,1768871828.4255066
1768871828433.319,1291.5750915750914,,0,-1,1768871828.433319
1768871828441.1316,1298.168498168498,,0,-1,1768871828.4411316
1768871828448.944,1309.89010989011,,0,-1,1768871828.448944
1768871828456.7566,1322.3443223443223,,0,-1,1768871828.4567566
1768871828464.569,1338.4615384615383,,0,-1,1768871828.464569
1768871828472.3816,1358.974358974359,,0,-1,1768871828.4723816
1768871828480.194,1383.8827838827838,,0,-1,1768871828.480194
1768871828488.0066,1405.128205128205,,0,-1,1768871828.4880066
1768871828495.819,1421.9780219780218,,0,-1,1768871828.495819
1768871828503.6316,1433.6996336996335,,0,-1,1768871828.5036316
1768871828511.444,1443.2234432234432,,0,-1,1768871828.511444
1768871828519.2566,1452.7472527472526,,0,-1,1768871828.5192566
1768871828527.069,1457.875457875458,,0,-1,1768871828.527069
1768871828534.8816,1459.3406593406592,,0,-1,1768871828.5348816
1768871828542.694,1462.2710622710622,,0,-1,1768871828.542694
1768871828550.5066,1460.07326007326,,0,-1,1768871828.5505066
1768871828558.319,1456.4102564102564,,0,-1,1768871828.558319
1768871828566.1316,1452.7472527472526,,0,-1,1768871828.5661316
1768871828573.944,1449.084249084249,,0,-1,1768871828.573944
1768871828581.7566,1444.688644688645,,0,-1,1768871828.5817566
1768871828589.569,1438.095238095238,,0,-1,1768871828.589569
1768871828597.3816,1432.9670329670328,,0,-1,1768871828.5973816
1768871828605.194,1428.5714285714284,,0,-1,1768871828.605194
1768871828613.0066,1424.175824175824,,0,-1,1768871828.6130066
1768871828620.819,1422.7106227106226,,0,-1,1768871828.620819
1768871828628.6316,1420.5128205128203,,0,-1,1768871828.6286316
1768871828636.444,1419.047619047619,,0,-1,1768871828.636444
1768871828644.2566,1415.3846153846152,,0,-1,1768871828.6442566
1768871828652.069,1411.7216117216117,,0,-1,1768871828.652069
1768871828659.8816,1406.5934065934066,,0,-1,1768871828.6598816
1768871828667.694,1401.4652014652013,,0,-1,1768871828.667694
1768871828675.5066,1398.5347985347985,,0,-1,1768871828.6755066
1768871828683.319,1395.6043956043954,,0,-1,1768871828.683319
1768871828691.1316,1391.941391941392,,0,-1,1768871828.6911316
1768871828698.944,1391.941391941392,,0,-1,1768871828.698944
1768871828706.7566,1394.139194139194,,0,-1,1768871828.7067566
1768871828714.569,1397.069597069597,,0,-1,1768871828.714569
1768871828722.3816,1396.3369963369962,,0,-1,1768871828.7223816
1768871828730.194,1393.4065934065934,,0,-1,1768871828.730194
1768871828738.0066,1387.5457875457876,,0,-1,1768871828.7380066
1768871828745.819,1381.6849816849815,,0,-1,1768871828.745819
1768871828753.6316,1375.8241758241757,,0,-1,1768871828.7536316
1768871828761.444,1368.4981684981683,,0,-1,1768871828.761444
1768871828769.2566,1362.6373626373625,,0,-1,1768871828.7692566
1768871828777.069,1357.5091575091574,,0,-1,1768871828.777069
1768871828784.8816,1352.3809523809523,,0,-1,1768871828.7848816
1768871828792.694,1347.2527472527472,,0,-1,1768871828.792694
1768871828800.5066,1343.5897435897434,,0,-1,1768871828.8005066
1768871828808.319,1342.857142857143,,0,-1,1768871828.808319
1768871828816.1316,1342.124542124542,,0,-1,1768871828.8161316
1768871828823.944,1339.92673992674,,0,-1,1768871828.823944
1768871828831.7566,1338.4615384615383,,0,-1,1768871828.8317566
1768871828839.569,1339.92673992674,,0,-1,1768871828.839569
1768871828847.3816,1344.3223443223442,,0,-1,1768871828.8473816
1768871828855.194,1349.4505494505493,,0,-1,1768871828.855194
1768871828863.0066,1347.985347985348,,0,-1,1768871828.8630066
1768871828870.819,1342.857142857143,,0,-1,1768871828.870819
1768871828878.6316,1339.92673992674,,0,-1,1768871828.8786316
1768871828886.444,1337.7289377289376,,0,-1,1768871828.886444
1768871828894.2566,1334.7985347985348,,0,-1,1768871828.8942566
1768871828902.069,1331.135531135531,,0,-1,1768871828.902069
1768871828909.8816,1331.135531135531,,0,-1,1768871828.9098816
1768871828917.694,1333.3333333333333,,0,-1,1768871828.917694
1768871828925.5066,1330.4029304029302,,0,-1,1768871828.9255066
1768871828933.319,1326.007326007326,,0,-1,1768871828.933319
1768871828941.1316,1326.007326007326,,0,-1,1768871828.9411316
1768871828948.944,1325.2747252747251,,0,-1,1768871828.948944
1768871828956.7566,1323.8095238095236,,0,-1,1768871828.9567566
1768871828964.569,1322.3443223443223,,0,-1,1768871828.964569
1768871828972.3816,1317.9487179487178,,0,-1,1768871828.9723816
1768871828980.194,1312.087912087912,,0,-1,1768871828.980194
1768871828988.0066,1309.1575091575091,,0,-1,1768871828.9880066
1768871828995.819,1302.5641025641023,,0,-1,1768871828.995819
1768871829003.6316,1298.9010989010987,,0,-1,1768871829.0036316
1768871829011.444,1294.5054945054944,,0,-1,1768871829.011444
1768871829019.2566,1295.2380952380952,,0,-1,1768871829.0192566
1768871829027.069,1301.8315018315018,,0,-1,1768871829.027069
1768871829034.8816,1311.3553113553112,,0,-1,1768871829.0348816
1768871829042.694,1320.8791208791208,,0,-1,1768871829.042694
1768871829050.5066,1331.8681318681315,,0,-1,1768871829.0505066
1768871829058.319,1351.6483516483515,,0,-1,1768871829.058319
1768871829066.1316,1373.6263736263736,,0,-1,1768871829.0661316
1768871829073.944,1397.8021978021975,,0,-1,1768871829.073944
1768871829081.7566,1423.4432234432234,,0,-1,1768871829.0817566
1768871829089.569,1441.0256410256409,,0,-1,1768871829.089569
1768871829097.3816,1459.3406593406592,,0,-1,1768871829.0973816
1768871829105.194,1472.5274725274724,,0,-1,1768871829.105194
1768871829113.0066,1487.9120879120878,,0,-1,1768871829.1130066
1768871829120.819,1501.8315018315018,,0,-1,1768871829.120819
1768871829128.6316,1506.9597069597069,,0,-1,1768871829.1286316
1768871829136.444,1511.3553113553112,,0,-1,1768871829.136444
1768871829144.2566,1512.8205128205127,,0,-1,1768871829.1442566
1768871829152.069,1506.9597069597069,,0,-1,1768871829.152069
1768871829159.8816,1504.7619047619046,,0,-1,1768871829.1598816
1768871829167.694,1499.6336996336995,,0,-1,1768871829.167694
1768871829175.5066,1501.098901098901,,0,-1,1768871829.1755066
1768871829183.319,1495.970695970696,,0,-1,1768871829.183319
1768871829191.1316,1495.2380952380952,,0,-1,1768871829.1911316
1768871829198.944,1484.9816849816848,,0,-1,1768871829.198944
1768871829206.7566,1476.923076923077,,0,-1,1768871829.2067566
1768871829214.569,1464.4688644688645,,0,-1,1768871829.214569
1768871829222.3816,1450.5494505494505,,0,-1,1768871829.2223816
1768871829230.194,1441.7582417582416,,0,-1,1768871829.230194
1768871829238.0066,1430.7692307692307,,0,-1,1768871829.2380066
1768871829245.819,1420.5128205128203,,0,-1,1768871829.245819
1768871829253.6316,1411.7216117216117,,0,-1,1768871829.2536316
1768871829261.444,1412.4542124542124,,0,-1,1768871829.261444
1768871829269.2566,1410.989010989011,,0,-1,1768871829.2692566
1768871829277.069,1415.3846153846152,,0,-1,1768871829.277069
1768871829284.8816,1412.4542124542124,,0,-1,1768871829.2848816
1768871829292.694,1410.989010989011,,0,-1,1768871829.292694
1768871829300.5066,1402.9304029304028,,0,-1,1768871829.3005066
1768871829308.319,1397.069597069597,,0,-1,1768871829.308319
1768871829316.1316,1388.278388278388,,0,-1,1768871829.3161316
1768871829323.944,1381.6849816849815,,0,-1,1768871829.323944
1768871829331.7566,1373.6263736263736,,0,-1,1768871829.3317566
1768871829339.569,1374.3589743589744,,0,-1,1768871829.339569
1768871829347.3816,1375.8241758241757,,1,5,1768871829.3473816
1768871829355.194,1375.8241758241757,,1,5,1768871829.355194
1768871829363.0066,1377.2893772893772,,1,5,1768871829.3630066
1768871829370.819,1374.3589743589744,,1,5,1768871829.370819
1768871829378.6316,1377.2893772893772,,1,5,1768871829.3786316
1768871829386.444,1376.5567765567764,,1,5,1768871829.386444
1768871829394.2566,1375.8241758241757,,1,5,1768871829.3942566
1768871829402.069,1369.9633699633698,,1,5,1768871829.402069
1768871829409.8816,1371.428571428571,,1,5,1768871829.4098816
1768871829417.694,1369.230769230769,,1,5,1768871829.417694
1768871829425.5066,1372.8937728937728,,1,5,1768871829.4255066
1768871829433.319,1375.091575091575,,1,5,1768871829.433319
1768871829441.1316,1382.4175824175825,,1,5,1768871829.4411316
1768871829448.944,1382.4175824175825,,1,5,1768871829.448944
1768871829456.7566,1384.6153846153843,,1,5,1768871829.4567566
1768871829464.569,1378.7545787545787,,1,5,1768871829.464569
1768871829472.3816,1375.091575091575,,1,5,1768871829.4723816
1768871829480.194,1369.230769230769,,1,5,1768871829.480194
1768871829488.0066,1367.7655677655678,,1,5,1768871829.4880066
1768871829495.819,1367.032967032967,,1,5,1768871829.495819
1768871829503.6316,1364.102564102564,,1,5,1768871829.5036316
1768871829511.444,1360.4395604395604,,1,5,1768871829.511444
1768871829519.2566,1353.8461538461538,,1,5,1768871829.5192566
1768871829527.069,1345.7875457875457,,1,5,1768871829.527069
1768871829534.8816,1338.4615384615383,,1,5,1768871829.5348816
1768871829542.694,1334.065934065934,,1,5,1768871829.542694
1768871829550.5066,1328.937728937729,,1,5,1768871829.5505066
1768871829558.319,1328.2051282051282,,1,5,1768871829.558319
1768871829566.1316,1331.135531135531,,1,5,1768871829.5661316
1768871829573.944,1336.9963369963368,,1,5,1768871829.573944
1768871829581.7566,1342.857142857143,,1,5,1768871829.5817566
1768871829589.569,1346.5201465201465,,1,5,1768871829.589569
1768871829597.3816,1347.985347985348,,1,5,1768871829.5973816
1768871829605.194,1344.3223443223442,,1,5,1768871829.605194
1768871829613.0066,1339.194139194139,,1,5,1768871829.6130066
1768871829620.819,1329.6703296703297,,1,5,1768871829.620819
1768871829628.6316,1319.4139194139193,,1,5,1768871829.6286316
1768871829636.444,1314.2857142857142,,1,5,1768871829.636444
1768871829644.2566,1312.8205128205127,,1,5,1768871829.6442566
1768871829652.069,1315.7509157509155,,1,5,1768871829.652069
1768871829659.8816,1326.007326007326,,1,5,1768871829.6598816
1768871829667.694,1336.263736263736,,1,5,1768871829.667694
1768871829675.5066,1345.054945054945,,1,5,1768871829.6755066
1768871829683.319,1358.974358974359,,1,5,1768871829.683319
1768871829691.1316,1378.7545787545787,,1,5,1768871829.6911316
1768871829698.944,1395.6043956043954,,1,5,1768871829.698944
1768871829706.7566,1418.3150183150185,,1,5,1768871829.7067566
1768871829714.569,1443.2234432234432,,1,5,1768871829.714569
1768871829722.3816,1465.201465201465,,1,5,1768871829.7223816
1768871829730.194,1483.5164835164835,,1,5,1768871829.730194
1768871829738.0066,1503.2967032967033,,1,5,1768871829.7380066
1768871829745.819,1512.087912087912,,1,5,1768871829.745819
1768871829753.6316,1518.6813186813183,,1,5,1768871829.7536316
1768871829761.444,1524.5421245421244,,1,5,1768871829.761444
1768871829769.2566,1524.5421245421244,,1,5,1768871829.7692566
1768871829777.069,1517.9487179487178,,1,5,1768871829.777069
1768871829784.8816,1507.6923076923076,,1,5,1768871829.7848816
1768871829792.694,1496.7032967032967,,1,5,1768871829.792694
1768871829800.5066,1493.040293040293,,1,5,1768871829.8005066
1768871829808.319,1489.3772893772891,,1,5,1768871829.808319
1768871829816.1316,1487.179487179487,,1,5,1768871829.8161316
1768871829823.944,1489.3772893772891,,1,5,1768871829.823944
1768871829831.7566,1484.2490842490845,,1,5,1768871829.8317566
1768871829839.569,1473.992673992674,,1,5,1768871829.839569
1768871829847.3816,1466.6666666666663,,1,5,1768871829.8473816
1768871829855.194,1463.003663003663,,1,5,1768871829.855194
1768871829863.0066,1460.07326007326,,1,5,1768871829.8630066
1768871829870.819,1457.142857142857,,1,5,1768871829.870819
1768871829878.6316,1453.479853479853,,1,5,1768871829.8786316
1768871829886.444,1449.8168498168498,,1,5,1768871829.886444
1768871829894.2566,1444.688644688645,,1,5,1768871829.8942566
1768871829902.069,1434.4322344322345,,1,5,1768871829.902069
1768871829909.8816,1426.3736263736262,,1,5,1768871829.9098816
1768871829917.694,1420.5128205128203,,1,5,1768871829.917694
1768871829925.5066,1413.9194139194135,,1,5,1768871829.9255066
1768871829933.319,1409.5238095238094,,1,5,1768871829.933319
1768871829941.1316,1406.5934065934066,,1,5,1768871829.9411316
1768871829948.944,1405.8608058608058,,1,5,1768871829.948944
1768871829956.7566,1403.6630036630036,,1,5,1768871829.9567566
1768871829964.569,1394.8717948717947,,1,5,1768871829.964569
1768871829972.3816,1385.3479853479853,,1,5,1768871829.9723816
1768871829980.194,1382.4175824175825,,1,5,1768871829.980194
1768871829988.0066,1380.2197802197802,,1,5,1768871829.9880066
1768871829995.819,1380.2197802197802,,1,5,1768871829.995819
1768871830003.6316,1379.4871794871794,,1,5,1768871830.0036316
1768871830011.444,1379.4871794871794,,1,5,1768871830.011444
1768871830019.2566,1377.2893772893772,,1,5,1768871830.0192566
1768871830027.069,1377.2893772893772,,1,5,1768871830.027069
1768871830034.8816,1379.4871794871794,,1,5,1768871830.0348816
1768871830042.694,1383.8827838827838,,1,5,1768871830.042694
1768871830050.5066,1382.4175824175825,,1,5,1768871830.0505066
1768871830058.319,1374.3589743589744,,1,5,1768871830.058319
1768871830066.1316,1371.428571428571,,1,5,1768871830.0661316
1768871830073.944,1374.3589743589744,,1,5,1768871830.073944
1768871830081.7566,1377.2893772893772,,1,5,1768871830.0817566
1768871830089.569,1378.7545787545787,,1,5,1768871830.089569
1768871830097.3816,1377.2893772893772,,1,5,1768871830.0973816
1768871830105.194,1373.6263736263736,,1,5,1768871830.105194
1768871830113.0066,1374.3589743589744,,1,5,1768871830.1130066
1768871830120.819,1378.021978021978,,1,5,1768871830.120819
1768871830128.6316,1379.4871794871794,,1,5,1768871830.1286316
1768871830136.444,1379.4871794871794,,1,5,1768871830.136444
1768871830144.2566,1376.5567765567764,,1,5,1768871830.1442566
1768871830152.069,1375.091575091575,,1,5,1768871830.152069
1768871830159.8816,1372.161172161172,,1,5,1768871830.1598816
1768871830167.694,1368.4981684981683,,1,5,1768871830.167694
1768871830175.5066,1364.102564102564,,1,5,1768871830.1755066
1768871830183.319,1362.6373626373625,,1,5,1768871830.183319
1768871830191.1316,1361.904761904762,,1,5,1768871830.1911316
1768871830198.944,1361.1721611721612,,1,5,1768871830.198944
1768871830206.7566,1358.974358974359,,1,5,1768871830.2067566
