Shimmer_6815_Timestamp_Unix_CAL,Shimmer_6815_PPG_A13_CAL,Unnamed: 2,inhale,inhale_id,epoch_sec
1768871403068.3289,46.88644688644688,,0,-1,1768871403.0683289
1768871403076.1414,140.65934065934064,,0,-1,1768871403.0761414
1768871403083.954,249.08424908424908,,0,-1,1768871403.083954
1768871403091.7664,361.1721611721612,,0,-1,1768871403.0917664
1768871403099.5789,473.2600732600732,,0,-1,1768871403.0995789
1768871403107.3914,578.7545787545787,,0,-1,1768871403.1073914
1768871403115.204,671.7948717948717,,0,-1,1768871403.115204
1768871403123.0164,753.8461538461538,,0,-1,1768871403.1230164
1768871403130.8289,828.5714285714286,,0,-1,1768871403.1308289
1768871403138.6414,887.9120879120878,,0,-1,1768871403.1386414
1768871403146.454,939.1941391941392,,0,-1,1768871403.146454
1768871403154.2664,977.2893772893772,,0,-1,1768871403.1542664
1768871403162.0789,1004.3956043956044,,0,-1,1768871403.1620789
1768871403169.8914,1024.175824175824,,0,-1,1768871403.1698914
1768871403177.704,1041.7582417582416,,0,-1,1768871403.177704
1768871403185.5164,1061.5384615384614,,0,-1,1768871403.1855164
1768871403193.3289,1079.8534798534797,,0,-1,1768871403.1933289
1768871403201.1414,1095.970695970696,,0,-1,1768871403.2011414
1768871403208.954,1114.2857142857142,,0,-1,1768871403.208954
1768871403216.7664,1136.2637362637363,,0,-1,1768871403.2167664
1768871403224.5789,1161.1721611721612,,0,-1,1768871403.2245789
1768871403232.3914,1192.6739926739926,,0,-1,1768871403.2323914
1768871403240.204,1226.3736263736264,,0,-1,1768871403.240204
1768871403248.0164,1261.5384615384614,,1,1,1768871403.2480164
1768871403255.8289,1297.4358974358977,,1,1,1768871403.2558289
1768871403263.6414,1338.4615384615383,,1,1,1768871403.2636414
1768871403271.454,1376.5567765567764,,1,1,1768871403.271454
1768871403279.2664,1409.5238095238094,,1,1,1768871403.2792664
1768871403287.0789,1435.8974358974358,,1,1,1768871403.2870789
1768871403294.8914,1458.6080586080584,,1,1,1768871403.2948914
1768871403302.704,1478.3882783882782,,1,1,1768871403.302704
1768871403310.5164,1490.8424908424906,,1,1,1768871403.3105164
1768871403318.3289,1505.4945054945051,,1,1,1768871403.3183289
1768871403326.1414,1515.018315018315,,1,1,1768871403.3261414
1768871403333.954,1511.3553113553112,,1,1,1768871403.333954
1768871403341.7664,1500.3663003663005,,1,1,1768871403.3417664
1768871403349.5789,1487.9120879120878,,1,1,1768871403.3495789
1768871403357.3914,1468.131868131868,,1,1,1768871403.3573914
1768871403365.204,1446.153846153846,,1,1,1768871403.365204
1768871403373.0164,1429.3040293040292,,1,1,1768871403.3730164
1768871403380.8289,1409.5238095238094,,1,1,1768871403.3808289
1768871403388.6414,1390.4761904761904,,1,1,1768871403.3886414
1768871403396.454,1372.8937728937728,,1,1,1768871403.396454
1768871403404.2664,1354.5787545787546,,1,1,1768871403.4042664
1768871403412.0789,1337.7289377289376,,1,1,1768871403.4120789
1768871403419.8914,1325.2747252747251,,1,1,1768871403.4198914
1768871403427.704,1315.7509157509155,,1,1,1768871403.427704
1768871403435.5164,1305.4945054945051,,1,1,1768871403.4355164
1768871403443.3289,1296.7032967032967,,1,1,1768871403.4433289
1768871403451.1414,1291.5750915750914,,1,1,1768871403.4511414
1768871403458.954,1287.9120879120878,,1,1,1768871403.458954
1768871403466.7664,1280.5860805860805,,1,1,1768871403.4667664
1768871403474.5789,1273.992673992674,,1,1,1768871403.4745789
1768871403482.3914,1270.3296703296703,,1,1,1768871403.4823914
1768871403490.204,1264.4688644688645,,1,1,1768871403.490204
1768871403498.0164,1257.142857142857,,1,1,1768871403.4980164
1768871403505.8289,1254.212454212454,,1,1,1768871403.5058289
1768871403513.6414,1245.4212454212454,,1,1,1768871403.5136414
1768871403521.454,1238.8278388278388,,1,1,1768871403.521454
1768871403529.2664,1238.8278388278388,,1,1,1768871403.5292664
1768871403537.0789,1238.8278388278388,,1,1,1768871403.5370789
1768871403544.8914,1235.164835164835,,1,1,1768871403.5448914
1768871403552.704,1231.5018315018317,,1,1,1768871403.552704
1768871403560.5164,1223.4432234432234,,1,1,1768871403.5605164
1768871403568.3289,1218.3150183150185,,1,1,1768871403.5683289
1768871403576.1414,1213.9194139194135,,1,1,1768871403.5761414
1768871403583.954,1208.058608058608,,1,1,1768871403.583954
1768871403591.7664,1205.128205128205,,1,1,1768871403.5917664
1768871403599.5789,1198.5347985347985,,1,1,1768871403.5995789
1768871403607.3914,1192.6739926739926,,1,1,1768871403.6073914
1768871403615.204,1186.080586080586,,1,1,1768871403.615204
1768871403623.0164,1183.150183150183,,1,1,1768871403.6230164
1768871403630.8289,1179.4871794871794,,1,1,1768871403.6308289
1768871403638.6414,1180.2197802197802,,1,1,1768871403.6386414
1768871403646.454,1173.6263736263736,,1,1,1768871403.646454
1768871403654.2664,1167.7655677655678,,1,1,1768871403.6542664
1768871403662.0789,1156.7765567765566,,1,1,1768871403.6620789
1768871403669.8914,1151.6483516483515,,1,1,1768871403.6698914
1768871403677.704,1151.6483516483515,,1,1,1768871403.677704
1768871403685.5164,1151.6483516483515,,1,1,1768871403.6855164
1768871403693.3289,1153.8461538461538,,1,1,1768871403.6933289
1768871403701.1414,1155.311355311355,,1,1,1768871403.7011414
1768871403708.954,1155.311355311355,,1,1,1768871403.708954
1768871403716.7664,1162.6373626373625,,1,1,1768871403.7167664
1768871403724.5789,1166.3003663003662,,1,1,1768871403.7245789
1768871403732.3914,1172.8937728937728,,1,1,1768871403.7323914
1768871403740.204,1178.021978021978,,1,1,1768871403.740204
1768871403748.0164,1178.7545787545787,,1,1,1768871403.7480164
1768871403755.8289,1189.0109890109889,,1,1,1768871403.7558289
1768871403763.6414,1207.3260073260074,,1,1,1768871403.7636414
1768871403771.454,1235.8974358974358,,1,1,1768871403.771454
1768871403779.2664,1271.062271062271,,1,1,1768871403.7792664
1768871403787.0789,1307.6923076923076,,1,1,1768871403.7870789
1768871403794.8914,1347.2527472527472,,1,1,1768871403.7948914
1768871403802.704,1383.8827838827838,,1,1,1768871403.802704
1768871403810.5164,1419.7802197802198,,1,1,1768871403.8105164
1768871403818.3289,1454.212454212454,,1,1,1768871403.8183289
1768871403826.1414,1489.3772893772891,,1,1,1768871403.8261414
1768871403833.954,1520.8791208791208,,1,1,1768871403.833954
1768871403841.7664,1542.124542124542,,1,1,1768871403.8417664
1768871403849.5789,1558.974358974359,,1,1,1768871403.8495789
1768871403857.3914,1570.6959706959706,,1,1,1768871403.8573914
1768871403865.204,1567.7655677655678,,1,1,1768871403.865204
1768871403873.0164,1562.6373626373625,,1,1,1768871403.8730164
1768871403880.8289,1550.18315018315,,1,1,1768871403.8808289
1768871403888.6414,1534.065934065934,,1,1,1768871403.8886414
1768871403896.454,1522.3443223443223,,1,1,1768871403.896454
1768871403904.2664,1511.3553113553112,,1,1,1768871403.9042664
1768871403912.0789,1493.7728937728937,,1,1,1768871403.9120789
1768871403919.8914,1479.120879120879,,1,1,1768871403.9198914
1768871403927.704,1460.07326007326,,1,1,1768871403.927704
1768871403935.5164,1439.5604395604394,,1,1,1768871403.9355164
1768871403943.3289,1421.245421245421,,1,1,1768871403.9433289
1768871403951.1414,1405.128205128205,,1,1,1768871403.9511414
1768871403958.954,1384.6153846153843,,1,1,1768871403.958954
1768871403966.7664,1364.8351648351647,,1,1,1768871403.9667664
1768871403974.5789,1345.054945054945,,1,1,1768871403.9745789
1768871403982.3914,1323.8095238095236,,1,1,1768871403.9823914
1768871403990.204,1306.9597069597069,,1,1,1768871403.990204
1768871403998.0164,1295.2380952380952,,1,1,1768871403.9980164
1768871404005.8289,1289.3772893772891,,1,1,1768871404.0058289
1768871404013.6414,1284.9816849816848,,1,1,1768871404.0136414
1768871404021.454,1282.7838827838827,,1,1,1768871404.021454
1768871404029.2664,1282.051282051282,,1,1,1768871404.0292664
1768871404037.0789,1280.5860805860805,,1,1,1768871404.0370789
1768871404044.8914,1282.051282051282,,1,1,1768871404.0448914
1768871404052.704,1284.2490842490845,,1,1,1768871404.052704
1768871404060.5164,1288.6446886446886,,1,1,1768871404.0605164
1768871404068.3289,1293.040293040293,,1,1,1768871404.0683289
1768871404076.1414,1291.5750915750914,,1,1,1768871404.0761414
1768871404083.954,1282.7838827838827,,1,1,1768871404.083954
1768871404091.7664,1273.260073260073,,1,1,1768871404.0917664
1768871404099.5789,1263.7362637362637,,1,1,1768871404.0995789
1768871404107.3914,1252.014652014652,,1,1,1768871404.1073914
1768871404115.204,1240.29304029304,,1,1,1768871404.115204
1768871404123.0164,1232.967032967033,,1,1,1768871404.1230164
1768871404130.8289,1229.3040293040292,,1,1,1768871404.1308289
1768871404138.6414,1230.03663003663,,1,1,1768871404.1386414
1768871404146.454,1233.6996336996335,,1,1,1768871404.146454
1768871404154.2664,1237.362637362637,,1,1,1768871404.1542664
1768871404162.0789,1243.2234432234432,,1,1,1768871404.1620789
1768871404169.8914,1243.956043956044,,1,1,1768871404.1698914
1768871404177.704,1237.362637362637,,1,1,1768871404.177704
1768871404185.5164,1227.8388278388277,,1,1,1768871404.1855164
1768871404193.3289,1219.7802197802198,,1,1,1768871404.1933289
1768871404201.1414,1212.4542124542124,,1,1,1768871404.2011414
1768871404208.954,1207.3260073260074,,1,1,1768871404.208954
1768871404216.7664,1200.7326007326008,,1,1,1768871404.2167664
1768871404224.5789,1197.8021978021975,,1,1,1768871404.2245789
1768871404232.3914,1196.3369963369962,,1,1,1768871404.2323914
1768871404240.204,1198.5347985347985,,1,1,1768871404.240204
1768871404248.0469,1200.7326007326008,,1,1,1768871404.2480469
1768871404255.8289,1205.128205128205,,1,1,1768871404.2558289
1768871404263.6414,1210.2564102564102,,1,1,1768871404.2636414
1768871404271.454,1217.5824175824175,,1,1,1768871404.271454
1768871404279.2664,1229.3040293040292,,1,1,1768871404.2792664
1768871404287.0789,1245.4212454212454,,1,1,1768871404.2870789
1768871404294.8914,1269.5970695970695,,1,1,1768871404.2948914
1768871404302.704,1300.3663003663005,,1,1,1768871404.302704
1768871404310.5164,1335.5311355311355,,1,1,1768871404.3105164
1768871404318.3289,1374.3589743589744,,1,1,1768871404.3183289
1768871404326.1414,1410.989010989011,,1,1,1768871404.3261414
1768871404333.954,1449.8168498168498,,1,1,1768871404.333954
1768871404341.7664,1488.6446886446886,,1,1,1768871404.3417664
1768871404349.5789,1527.4725274725274,,1,1,1768871404.3495789
1768871404357.3914,1560.4395604395604,,1,1,1768871404.3573914
1768871404365.204,1583.150183150183,,1,1,1768871404.365204
1768871404373.0164,1596.3369963369962,,1,1,1768871404.3730164
1768871404380.8289,1598.5347985347985,,1,1,1768871404.3808289
1768871404388.6414,1599.2673992673992,,1,1,1768871404.3886414
1768871404396.454,1593.4065934065934,,1,1,1768871404.396454
1768871404404.2664,1581.6849816849815,,1,1,1768871404.4042664
1768871404412.0789,1569.9633699633698,,1,1,1768871404.4120789
1768871404419.8914,1556.043956043956,,1,1,1768871404.4198914
1768871404427.704,1538.4615384615383,,1,1,1768871404.427704
1768871404435.5164,1521.6117216117216,,1,1,1768871404.4355164
1768871404443.3289,1504.0293040293038,,1,1,1768871404.4433289
1768871404451.1414,1483.5164835164835,,1,1,1768871404.4511414
1768871404458.954,1467.3992673992673,,1,1,1768871404.458954
1768871404466.7664,1458.6080586080584,,1,1,1768871404.4667664
1768871404474.5789,1450.5494505494505,,1,1,1768871404.4745789
1768871404482.3914,1435.164835164835,,1,1,1768871404.4823914
1768871404490.204,1422.7106227106226,,1,1,1768871404.490204
1768871404498.0164,1402.9304029304028,,1,1,1768871404.4980164
1768871404505.8289,1376.5567765567764,,1,1,1768871404.5058289
1768871404513.6414,1352.3809523809523,,1,1,1768871404.5136414
1768871404521.454,1332.6007326007325,,1,1,1768871404.521454
1768871404529.2664,1312.8205128205127,,1,1,1768871404.5292664
1768871404537.0789,1298.9010989010987,,1,1,1768871404.5370789
1768871404544.8914,1290.8424908424909,,1,1,1768871404.5448914
1768871404552.704,1282.051282051282,,1,1,1768871404.552704
1768871404560.5164,1276.190476190476,,1,1,1768871404.5605164
1768871404568.3289,1276.923076923077,,1,1,1768871404.5683289
1768871404576.1414,1276.923076923077,,1,1,1768871404.5761414
1768871404583.954,1282.7838827838827,,1,1,1768871404.583954
1768871404591.7664,1291.5750915750914,,1,1,1768871404.5917664
1768871404599.5789,1297.4358974358977,,1,1,1768871404.5995789
1768871404607.3914,1304.7619047619046,,1,1,1768871404.6073914
1768871404615.204,1312.087912087912,,1,1,1768871404.615204
1768871404623.0164,1314.2857142857142,,1,1,1768871404.6230164
1768871404630.8289,1315.7509157509155,,1,1,1768871404.6308289
1768871404638.6414,1317.9487179487178,,1,1,1768871404.6386414
1768871404646.454,1315.7509157509155,,1,1,1768871404.646454
1768871404654.2664,1310.6227106227104,,1,1,1768871404.6542664
1768871404662.0789,1308.4249084249084,,1,1,1768871404.6620789
1768871404669.8914,1302.5641025641023,,1,1,1768871404.6698914
1768871404677.704,1296.7032967032967,,1,1,1768871404.677704
1768871404685.5164,1287.179487179487,,1,1,1768871404.6855164
1768871404693.3289,1278.3882783882782,,1,1,1768871404.6933289
1768871404701.1414,1268.8644688644688,,1,1,1768871404.7011414
1768871404708.954,1253.479853479853,,1,1,1768871404.708954
1768871404716.7664,1243.2234432234432,,1,1,1768871404.7167664
1768871404724.5789,1231.5018315018317,,1,1,1768871404.7245789
1768871404732.3914,1221.245421245421,,1,1,1768871404.7323914
1768871404740.204,1208.7912087912086,,1,1,1768871404.740204
1768871404748.0164,1202.197802197802,,1,1,1768871404.7480164
1768871404755.8289,1190.4761904761904,,1,1,1768871404.7558289
1768871404763.6414,1180.952380952381,,1,1,1768871404.7636414
1768871404771.454,1169.9633699633698,,1,1,1768871404.771454
1768871404779.2664,1166.3003663003662,,1,1,1768871404.7792664
1768871404787.0789,1162.6373626373625,,1,1,1768871404.7870789
1768871404794.8914,1166.3003663003662,,1,1,1768871404.7948914
1768871404802.704,1175.0915750915751,,1,1,1768871404.802704
1768871404810.5164,1188.278388278388,,1,1,1768871404.8105164
1768871404818.3289,1216.117216117216,,1,1,1768871404.8183289
1768871404826.1414,1249.8168498168498,,1,1,1768871404.8261414
1768871404833.954,1295.970695970696,,1,1,1768871404.833954
1768871404841.7664,1342.124542124542,,1,1,1768871404.8417664
1768871404849.5789,1393.4065934065934,,0,-1,1768871404.8495789
1768871404857.3914,1446.8864468864467,,0,-1,1768871404.8573914
1768871404865.204,1492.3076923076922,,0,-1,1768871404.865204
1768871404873.0164,1532.6007326007325,,0,-1,1768871404.8730164
1768871404880.8289,1562.6373626373625,,0,-1,1768871404.8808289
1768871404888.6414,1589.0109890109889,,0,-1,1768871404.8886414
1768871404896.454,1609.5238095238094,,0,-1,1768871404.896454
1768871404904.2664,1618.3150183150185,,0,-1,1768871404.9042664
1768871404912.0789,1624.9084249084249,,0,-1,1768871404.9120789
1768871404919.8914,1621.9780219780218,,0,-1,1768871404.9198914
1768871404927.704,1616.117216117216,,0,-1,1768871404.927704
1768871404935.5164,1606.5934065934066,,0,-1,1768871404.9355164
1768871404943.3289,1591.941391941392,,0,-1,1768871404.9433289
1768871404951.1414,1582.4175824175825,,0,-1,1768871404.9511414
1768871404958.954,1570.6959706959706,,0,-1,1768871404.958954
1768871404966.7664,1558.974358974359,,0,-1,1768871404.9667664
1768871404974.5789,1547.2527472527472,,0,-1,1768871404.9745789
1768871404982.3914,1534.065934065934,,0,-1,1768871404.9823914
1768871404990.204,1515.7509157509155,,0,-1,1768871404.990204
1768871404998.0164,1494.5054945054944,,0,-1,1768871404.9980164
1768871405005.8289,1471.7948717948716,,0,-1,1768871405.0058289
1768871405013.6414,1448.3516483516482,,0,-1,1768871405.0136414
1768871405021.454,1421.245421245421,,0,-1,1768871405.021454
1768871405029.2664,1394.8717948717947,,0,-1,1768871405.0292664
1768871405037.0789,1374.3589743589744,,0,-1,1768871405.0370789
1768871405044.8914,1356.7765567765566,,0,-1,1768871405.0448914
1768871405052.704,1340.6593406593406,,0,-1,1768871405.052704
1768871405060.5164,1331.135531135531,,0,-1,1768871405.0605164
1768871405068.3289,1327.4725274725274,,0,-1,1768871405.0683289
1768871405076.1414,1323.8095238095236,,0,-1,1768871405.0761414
1768871405083.954,1319.4139194139193,,0,-1,1768871405.083954
1768871405091.7664,1316.4835164835165,,0,-1,1768871405.0917664
1768871405099.5789,1319.4139194139193,,0,-1,1768871405.0995789
1768871405107.3914,1322.3443223443223,,0,-1,1768871405.1073914
1768871405115.204,1323.8095238095236,,0,-1,1768871405.115204
1768871405123.0164,1324.5421245421244,,0,-1,1768871405.1230164
1768871405130.8289,1327.4725274725274,,0,-1,1768871405.1308289
1768871405138.6414,1330.4029304029302,,0,-1,1768871405.1386414
1768871405146.454,1331.8681318681315,,0,-1,1768871405.146454
1768871405154.2664,1329.6703296703297,,0,-1,1768871405.1542664
1768871405162.0789,1326.007326007326,,0,-1,1768871405.1620789
1768871405169.8914,1322.3443223443223,,0,-1,1768871405.1698914
1768871405177.704,1316.4835164835165,,0,-1,1768871405.177704
1768871405185.5164,1311.3553113553112,,0,-1,1768871405.1855164
1768871405193.3289,1304.7619047619046,,0,-1,1768871405.1933289
1768871405201.1414,1298.9010989010987,,0,-1,1768871405.2011414
1768871405208.954,1295.970695970696,,0,-1,1768871405.208954
1768871405216.7664,1292.3076923076922,,0,-1,1768871405.2167664
1768871405224.5789,1290.10989010989,,0,-1,1768871405.2245789
1768871405232.3914,1289.3772893772891,,0,-1,1768871405.2323914
1768871405240.204,1287.179487179487,,0,-1,1768871405.240204
1768871405248.0164,1284.2490842490845,,0,-1,1768871405.2480164
1768871405255.8289,1279.120879120879,,0,-1,1768871405.2558289
1768871405263.6414,1274.7252747252746,,0,-1,1768871405.2636414
1768871405271.454,1268.131868131868,,0,-1,1768871405.271454
1768871405279.2664,1260.07326007326,,0,-1,1768871405.2792664
1768871405287.0789,1249.8168498168498,,0,-1,1768871405.2870789
1768871405294.8914,1240.29304029304,,0,-1,1768871405.2948914
1768871405302.704,1230.7692307692307,,0,-1,1768871405.302704
1768871405310.5164,1224.175824175824,,0,-1,1768871405.3105164
1768871405318.3289,1217.5824175824175,,0,-1,1768871405.3183289
1768871405326.1414,1214.6520146520145,,0,-1,1768871405.3261414
1768871405333.954,1219.7802197802198,,0,-1,1768871405.333954
1768871405341.7664,1232.2344322344322,,0,-1,1768871405.3417664
1768871405349.5789,1255.6776556776556,,0,-1,1768871405.3495789
1768871405357.3914,1285.7142857142856,,0,-1,1768871405.3573914
1768871405365.204,1319.4139194139193,,0,-1,1768871405.365204
1768871405373.0164,1356.7765567765566,,0,-1,1768871405.3730164
1768871405380.8289,1398.5347985347985,,0,-1,1768871405.3808289
1768871405388.6414,1439.5604395604394,,0,-1,1768871405.3886414
1768871405396.454,1480.5860805860805,,0,-1,1768871405.396454
1768871405404.2664,1518.6813186813183,,0,-1,1768871405.4042664
1768871405412.0789,1552.3809523809523,,0,-1,1768871405.4120789
1768871405419.8914,1580.9523809523807,,0,-1,1768871405.4198914
1768871405427.704,1605.8608058608058,,0,-1,1768871405.427704
1768871405435.5164,1625.6410256410256,,0,-1,1768871405.4355164
1768871405443.3289,1638.095238095238,,0,-1,1768871405.4433289
1768871405451.1414,1641.0256410256409,,0,-1,1768871405.4511414
1768871405458.954,1635.164835164835,,0,-1,1768871405.458954
1768871405466.7664,1626.3736263736262,,0,-1,1768871405.4667664
1768871405474.5789,1613.186813186813,,0,-1,1768871405.4745789
1768871405482.3914,1599.2673992673992,,0,-1,1768871405.4823914
1768871405490.204,1585.3479853479853,,0,-1,1768871405.490204
1768871405498.0164,1568.4981684981683,,0,-1,1768871405.4980164
1768871405505.8289,1548.7179487179485,,0,-1,1768871405.5058289
1768871405513.6414,1528.2051282051282,,0,-1,1768871405.5136414
1768871405521.454,1506.9597069597069,,0,-1,1768871405.521454
1768871405529.2664,1482.051282051282,,0,-1,1768871405.5292664
1768871405537.0789,1447.6190476190477,,0,-1,1768871405.5370789
1768871405544.8914,1417.5824175824175,,0,-1,1768871405.5448914
1768871405552.704,1394.8717948717947,,0,-1,1768871405.552704
1768871405560.5164,1374.3589743589744,,0,-1,1768871405.5605164
1768871405568.3289,1356.043956043956,,0,-1,1768871405.5683289
1768871405576.1414,1340.6593406593406,,0,-1,1768871405.5761414
1768871405583.954,1335.5311355311355,,0,-1,1768871405.583954
1768871405591.7664,1334.065934065934,,0,-1,1768871405.5917664
1768871405599.5789,1334.065934065934,,0,-1,1768871405.5995789
1768871405607.3914,1333.3333333333333,,0,-1,1768871405.6073914
1768871405615.204,1330.4029304029302,,0,-1,1768871405.615204
1768871405623.0164,1328.2051282051282,,0,-1,1768871405.6230164
1768871405630.8289,1323.076923076923,,0,-1,1768871405.6308289
1768871405638.6414,1317.216117216117,,0,-1,1768871405.6386414
1768871405646.454,1315.7509157509155,,0,-1,1768871405.646454
1768871405654.2664,1312.087912087912,,0,-1,1768871405.6542664
1768871405662.0789,1304.0293040293038,,0,-1,1768871405.6620789
1768871405669.8914,1296.7032967032967,,0,-1,1768871405.6698914
1768871405677.704,1287.179487179487,,0,-1,1768871405.677704
1768871405685.5164,1286.4468864468863,,0,-1,1768871405.6855164
1768871405693.3289,1283.5164835164835,,0,-1,1768871405.6933289
1768871405701.1414,1289.3772893772891,,0,-1,1768871405.7011414
1768871405708.954,1290.10989010989,,0,-1,1768871405.708954
1768871405716.7664,1292.3076923076922,,0,-1,1768871405.7167664
1768871405724.5789,1299.6336996336995,,0,-1,1768871405.7245789
1768871405732.3914,1298.9010989010987,,0,-1,1768871405.7323914
1768871405740.204,1298.168498168498,,0,-1,1768871405.740204
1768871405748.0164,1293.040293040293,,0,-1,1768871405.7480164
1768871405755.8289,1284.9816849816848,,0,-1,1768871405.7558289
1768871405763.6414,1278.3882783882782,,0,-1,1768871405.7636414
1768871405771.454,1268.131868131868,,0,-1,1768871405.771454
1768871405779.2664,1262.2710622710622,,0,-1,1768871405.7792664
1768871405787.0789,1251.2820512820513,,0,-1,1768871405.7870789
1768871405794.8914,1245.4212454212454,,0,-1,1768871405.7948914
1768871405802.704,1233.6996336996335,,0,-1,1768871405.802704
1768871405810.5164,1227.8388278388277,,0,-1,1768871405.8105164
1768871405818.3289,1221.245421245421,,0,-1,1768871405.8183289
1768871405826.1414,1223.4432234432234,,0,-1,1768871405.8261414
1768871405833.954,1221.245421245421,,0,-1,1768871405.833954
1768871405841.7664,1220.5128205128203,,0,-1,1768871405.8417664
1768871405849.5789,1214.6520146520145,,0,-1,1768871405.8495789
1768871405857.3914,1210.2564102564102,,0,-1,1768871405.8573914
1768871405865.204,1210.2564102564102,,0,-1,1768871405.865204
1768871405873.0164,1220.5128205128203,,0,-1,1768871405.8730164
1768871405880.8289,1233.6996336996335,,0,-1,1768871405.8808289
1768871405888.6414,1257.875457875458,,0,-1,1768871405.8886414
1768871405896.454,1283.5164835164835,,0,-1,1768871405.896454
1768871405904.2664,1316.4835164835165,,0,-1,1768871405.9042664
1768871405912.0789,1349.4505494505493,,0,-1,1768871405.9120789
1768871405919.8914,1391.2087912087911,,0,-1,1768871405.9198914
1768871405927.704,1430.03663003663,,0,-1,1768871405.927704
1768871405935.5164,1473.260073260073,,0,-1,1768871405.9355164
1768871405943.3289,1507.6923076923076,,0,-1,1768871405.9433289
1768871405951.1414,1542.857142857143,,0,-1,1768871405.9511414
1768871405958.954,1565.5677655677655,,0,-1,1768871405.958954
1768871405966.7664,1584.6153846153843,,0,-1,1768871405.9667664
1768871405974.5789,1596.3369963369962,,0,-1,1768871405.9745789
1768871405982.3914,1606.5934065934066,,0,-1,1768871405.9823914
1768871405990.204,1610.989010989011,,0,-1,1768871405.990204
1768871405998.0164,1610.989010989011,,0,-1,1768871405.9980164
1768871406005.8289,1604.3956043956043,,0,-1,1768871406.0058289
1768871406013.6414,1586.8131868131868,,0,-1,1768871406.0136414
1768871406021.454,1564.8351648351647,,0,-1,1768871406.021454
1768871406029.2664,1536.9963369963368,,0,-1,1768871406.0292664
1768871406037.0789,1512.8205128205127,,0,-1,1768871406.0370789
1768871406044.8914,1482.051282051282,,0,-1,1768871406.0448914
1768871406052.704,1455.6776556776556,,0,-1,1768871406.052704
1768871406060.5164,1427.8388278388277,,0,-1,1768871406.0605164
1768871406068.3289,1405.128205128205,,0,-1,1768871406.0683289
1768871406076.1414,1391.2087912087911,,0,-1,1768871406.0761414
1768871406083.954,1376.5567765567764,,0,-1,1768871406.083954
1768871406091.7664,1365.5677655677655,,0,-1,1768871406.0917664
1768871406099.5789,1355.311355311355,,0,-1,1768871406.0995789
1768871406107.3914,1341.3919413919414,,0,-1,1768871406.1073914
1768871406115.204,1331.135531135531,,0,-1,1768871406.115204
1768871406123.0164,1325.2747252747251,,0,-1,1768871406.1230164
1768871406130.8289,1320.14652014652,,0,-1,1768871406.1308289
1768871406138.6414,1317.216117216117,,0,-1,1768871406.1386414
1768871406146.454,1316.4835164835165,,0,-1,1768871406.146454
1768871406154.2664,1310.6227106227104,,0,-1,1768871406.1542664
1768871406162.0789,1306.9597069597069,,0,-1,1768871406.1620789
1768871406169.8914,1307.6923076923076,,0,-1,1768871406.1698914
1768871406177.704,1302.5641025641023,,0,-1,1768871406.177704
1768871406185.5164,1300.3663003663005,,0,-1,1768871406.1855164
1768871406193.3289,1298.9010989010987,,0,-1,1768871406.1933289
1768871406201.1414,1294.5054945054944,,0,-1,1768871406.2011414
1768871406208.954,1294.5054945054944,,0,-1,1768871406.208954
1768871406216.7664,1288.6446886446886,,0,-1,1768871406.2167664
1768871406224.5789,1288.6446886446886,,0,-1,1768871406.2245789
1768871406232.3914,1287.179487179487,,0,-1,1768871406.2323914
1768871406240.204,1284.2490842490845,,0,-1,1768871406.240204
1768871406248.0164,1284.9816849816848,,0,-1,1768871406.2480164
1768871406255.8289,1279.8534798534797,,0,-1,1768871406.2558289
1768871406263.6414,1277.6556776556777,,0,-1,1768871406.2636414
1768871406271.454,1271.7948717948716,,0,-1,1768871406.271454
1768871406279.2664,1263.003663003663,,0,-1,1768871406.2792664
1768871406287.0789,1254.9450549450548,,0,-1,1768871406.2870789
1768871406294.8914,1254.9450549450548,,0,-1,1768871406.2948914
1768871406302.704,1254.212454212454,,0,-1,1768871406.302704
1768871406310.5164,1252.7472527472526,,0,-1,1768871406.3105164
1768871406318.3289,1254.212454212454,,0,-1,1768871406.3183289
1768871406326.1414,1254.212454212454,,0,-1,1768871406.3261414
1768871406333.954,1248.3516483516482,,0,-1,1768871406.333954
1768871406341.7664,1246.153846153846,,0,-1,1768871406.3417664
1768871406349.5789,1237.362637362637,,0,-1,1768871406.3495789
1768871406357.3914,1227.8388278388277,,0,-1,1768871406.3573914
1768871406365.204,1217.5824175824175,,0,-1,1768871406.365204
1768871406373.0164,1202.9304029304028,,0,-1,1768871406.3730164
1768871406380.8289,1191.2087912087911,,0,-1,1768871406.3808289
1768871406388.6414,1175.8241758241757,,0,-1,1768871406.3886414
1768871406396.454,1162.6373626373625,,0,-1,1768871406.396454
1768871406404.2664,1156.7765567765566,,0,-1,1768871406.4042664
1768871406412.0789,1158.974358974359,,0,-1,1768871406.4120789
1768871406419.8914,1170.6959706959706,,0,-1,1768871406.4198914
1768871406427.704,1187.5457875457876,,0,-1,1768871406.427704
1768871406435.5164,1211.7216117216117,,0,-1,1768871406.4355164
1768871406443.3289,1239.5604395604396,,0,-1,1768871406.4433289
1768871406451.1414,1270.3296703296703,,0,-1,1768871406.4511414
1768871406458.954,1305.4945054945051,,0,-1,1768871406.458954
1768871406466.7664,1342.124542124542,,0,-1,1768871406.4667664
1768871406474.5789,1380.952380952381,,0,-1,1768871406.4745789
1768871406482.3914,1415.3846153846152,,0,-1,1768871406.4823914
1768871406490.204,1445.4212454212454,,0,-1,1768871406.490204
1768871406498.0164,1473.992673992674,,1,2,1768871406.4980164
1768871406505.8289,1498.9010989010987,,1,2,1768871406.5058289
1768871406513.6414,1515.7509157509155,,1,2,1768871406.5136414
1768871406521.454,1531.8681318681315,,1,2,1768871406.521454
1768871406529.2664,1537.7289377289376,,1,2,1768871406.5292664
1768871406537.0789,1536.263736263736,,1,2,1768871406.5370789
1768871406544.8914,1530.4029304029302,,1,2,1768871406.5448914
1768871406552.704,1520.14652014652,,1,2,1768871406.552704
1768871406560.5164,1506.9597069597069,,1,2,1768871406.5605164
1768871406568.3289,1489.3772893772891,,1,2,1768871406.5683289
1768871406576.1414,1469.5970695970695,,1,2,1768871406.5761414
1768871406583.954,1455.6776556776556,,1,2,1768871406.583954
1768871406591.7664,1437.362637362637,,1,2,1768871406.5917664
1768871406599.5789,1424.175824175824,,1,2,1768871406.5995789
1768871406607.3914,1409.5238095238094,,1,2,1768871406.6073914
1768871406615.204,1395.6043956043954,,1,2,1768871406.615204
1768871406623.0164,1380.952380952381,,1,2,1768871406.6230164
1768871406630.8289,1367.7655677655678,,1,2,1768871406.6308289
1768871406638.6414,1350.18315018315,,1,2,1768871406.6386414
1768871406646.454,1333.3333333333333,,1,2,1768871406.646454
1768871406654.2664,1317.9487179487178,,1,2,1768871406.6542664
1768871406662.0789,1300.3663003663005,,1,2,1768871406.6620789
1768871406669.8914,1291.5750915750914,,1,2,1768871406.6698914
1768871406677.704,1290.8424908424909,,1,2,1768871406.677704
1768871406685.5164,1293.040293040293,,1,2,1768871406.6855164
1768871406693.3289,1293.040293040293,,1,2,1768871406.6933289
1768871406701.1414,1291.5750915750914,,1,2,1768871406.7011414
1768871406708.954,1289.3772893772891,,1,2,1768871406.708954
1768871406716.7664,1289.3772893772891,,1,2,1768871406.7167664
1768871406724.5789,1289.3772893772891,,1,2,1768871406.7245789
1768871406732.3914,1290.8424908424909,,1,2,1768871406.7323914
1768871406740.204,1290.10989010989,,1,2,1768871406.740204
1768871406748.0164,1284.2490842490845,,1,2,1768871406.7480164
1768871406755.8289,1277.6556776556777,,1,2,1768871406.7558289
1768871406763.6414,1268.131868131868,,1,2,1768871406.7636414
1768871406771.454,1260.07326007326,,1,2,1768871406.771454
1768871406779.2664,1256.4102564102564,,1,2,1768871406.7792664
1768871406787.0789,1254.9450549450548,,1,2,1768871406.7870789
1768871406794.8914,1250.5494505494505,,1,2,1768871406.7948914
1768871406802.704,1244.688644688645,,1,2,1768871406.802704
1768871406810.5164,1236.6300366300366,,1,2,1768871406.8105164
1768871406818.3289,1230.03663003663,,1,2,1768871406.8183289
1768871406826.1414,1225.6410256410256,,1,2,1768871406.8261414
1768871406833.954,1224.9084249084249,,1,2,1768871406.833954
1768871406841.7664,1225.6410256410256,,1,2,1768871406.8417664
1768871406849.5789,1226.3736263736264,,1,2,1768871406.8495789
1768871406857.3914,1227.8388278388277,,1,2,1768871406.8573914
1768871406865.204,1231.5018315018317,,1,2,1768871406.865204
1768871406873.0164,1236.6300366300366,,1,2,1768871406.8730164
1768871406880.8289,1241.0256410256409,,1,2,1768871406.8808289
1768871406888.6414,1246.153846153846,,1,2,1768871406.8886414
1768871406896.454,1249.084249084249,,1,2,1768871406.896454
1768871406904.2664,1248.3516483516482,,1,2,1768871406.9042664
1768871406912.0789,1244.688644688645,,1,2,1768871406.9120789
1768871406919.8914,1238.8278388278388,,1,2,1768871406.9198914
1768871406927.704,1228.5714285714284,,1,2,1768871406.927704
1768871406935.5164,1216.8498168498168,,1,2,1768871406.9355164
1768871406943.3289,1207.3260073260074,,1,2,1768871406.9433289
1768871406951.1414,1200.0,,1,2,1768871406.9511414
1768871406958.954,1193.4065934065934,,1,2,1768871406.958954
1768871406966.7664,1190.4761904761904,,1,2,1768871406.9667664
1768871406974.5789,1192.6739926739926,,1,2,1768871406.9745789
1768871406982.3914,1200.7326007326008,,1,2,1768871406.9823914
1768871406990.204,1213.1868131868132,,1,2,1768871406.990204
1768871406998.0164,1223.4432234432234,,1,2,1768871406.9980164
1768871407005.8289,1240.29304029304,,1,2,1768871407.0058289
1768871407013.6414,1265.9340659340658,,1,2,1768871407.0136414
1768871407021.454,1296.7032967032967,,1,2,1768871407.021454
1768871407029.2664,1330.4029304029302,,1,2,1768871407.0292664
1768871407037.0789,1364.8351648351647,,1,2,1768871407.0370789
1768871407044.8914,1394.8717948717947,,1,2,1768871407.0448914
1768871407052.704,1421.9780219780218,,1,2,1768871407.052704
1768871407060.5164,1445.4212454212454,,1,2,1768871407.0605164
1768871407068.3289,1460.805860805861,,1,2,1768871407.0683289
1768871407076.1414,1472.5274725274724,,1,2,1768871407.0761414
1768871407083.954,1479.8534798534797,,1,2,1768871407.083954
1768871407091.7664,1481.3186813186812,,1,2,1768871407.0917664
1768871407099.5789,1474.7252747252746,,1,2,1768871407.0995789
1768871407107.3914,1461.5384615384614,,1,2,1768871407.1073914
1768871407115.204,1447.6190476190477,,1,2,1768871407.115204
1768871407123.0164,1429.3040293040292,,1,2,1768871407.1230164
1768871407130.8289,1410.989010989011,,1,2,1768871407.1308289
1768871407138.6414,1391.941391941392,,1,2,1768871407.1386414
1768871407146.454,1374.3589743589744,,1,2,1768871407.146454
1768871407154.2664,1359.7069597069597,,1,2,1768871407.1542664
1768871407162.0789,1348.7179487179487,,1,2,1768871407.1620789
1768871407169.8914,1338.4615384615383,,1,2,1768871407.1698914
1768871407177.704,1326.007326007326,,1,2,1768871407.177704
1768871407185.5164,1314.2857142857142,,1,2,1768871407.1855164
1768871407193.3289,1301.098901098901,,1,2,1768871407.1933289
1768871407201.1414,1289.3772893772891,,1,2,1768871407.2011414
1768871407208.954,1282.7838827838827,,1,2,1768871407.208954
1768871407216.7664,1284.2490842490845,,1,2,1768871407.2167664
1768871407224.5789,1283.5164835164835,,1,2,1768871407.2245789
1768871407232.3914,1283.5164835164835,,1,2,1768871407.2323914
1768871407240.204,1286.4468864468863,,1,2,1768871407.240204
1768871407248.0164,1284.2490842490845,,1,2,1768871407.2480164
1768871407255.8289,1282.7838827838827,,1,2,1768871407.2558289
1768871407263.6414,1279.8534798534797,,1,2,1768871407.2636414
1768871407271.454,1276.923076923077,,1,2,1768871407.271454
1768871407279.2664,1279.120879120879,,1,2,1768871407.2792664
1768871407287.0789,1281.3186813186812,,1,2,1768871407.2870789
1768871407294.8914,1280.5860805860805,,1,2,1768871407.2948914
1768871407302.704,1280.5860805860805,,1,2,1768871407.302704
1768871407310.5164,1274.7252747252746,,1,2,1768871407.3105164
1768871407318.3289,1263.003663003663,,1,2,1768871407.3183289
1768871407326.1414,1257.142857142857,,1,2,1768871407.3261414
1768871407333.954,1250.5494505494505,,1,2,1768871407.333954
1768871407341.7664,1244.688644688645,,1,2,1768871407.3417664
1768871407349.5789,1244.688644688645,,1,2,1768871407.3495789
1768871407357.3914,1240.29304029304,,1,2,1768871407.3573914
1768871407365.204,1234.4322344322345,,1,2,1768871407.365204
1768871407373.0164,1232.2344322344322,,1,2,1768871407.3730164
1768871407380.8289,1230.03663003663,,1,2,1768871407.3808289
1768871407388.6414,1227.8388278388277,,1,2,1768871407.3886414
1768871407396.454,1224.175824175824,,1,2,1768871407.396454
1768871407404.2664,1221.9780219780218,,1,2,1768871407.4042664
1768871407412.0789,1221.9780219780218,,1,2,1768871407.4120789
1768871407419.8914,1218.3150183150185,,1,2,1768871407.4198914
1768871407427.704,1216.8498168498168,,1,2,1768871407.427704
1768871407435.5164,1214.6520146520145,,1,2,1768871407.4355164
1768871407443.3289,1210.989010989011,,1,2,1768871407.4433289
1768871407451.1414,1208.058608058608,,1,2,1768871407.4511414
1768871407458.954,1200.7326007326008,,1,2,1768871407.458954
1768871407466.7664,1196.3369963369962,,1,2,1768871407.4667664
1768871407474.5789,1189.0109890109889,,1,2,1768871407.4745789
1768871407482.3914,1188.278388278388,,1,2,1768871407.4823914
1768871407490.204,1192.6739926739926,,1,2,1768871407.490204
1768871407498.0164,1194.1391941391942,,1,2,1768871407.4980164
1768871407505.8289,1202.197802197802,,1,2,1768871407.5058289
1768871407513.6414,1207.3260073260074,,1,2,1768871407.5136414
1768871407521.454,1220.5128205128203,,1,2,1768871407.521454
1768871407529.2664,1234.4322344322345,,1,2,1768871407.5292664
1768871407537.0789,1254.212454212454,,1,2,1768871407.5370789
1768871407544.8914,1274.7252747252746,,1,2,1768871407.5448914
1768871407552.704,1301.098901098901,,1,2,1768871407.552704
1768871407560.5164,1326.739926739927,,1,2,1768871407.5605164
1768871407568.3289,1350.18315018315,,1,2,1768871407.5683289
1768871407576.1414,1374.3589743589744,,1,2,1768871407.5761414
1768871407583.954,1397.8021978021975,,1,2,1768871407.583954
1768871407591.7664,1413.9194139194135,,1,2,1768871407.5917664
1768871407599.5789,1427.106227106227,,1,2,1768871407.5995789
1768871407607.3914,1434.4322344322345,,1,2,1768871407.6073914
1768871407615.204,1438.095238095238,,1,2,1768871407.615204
1768871407623.0164,1435.164835164835,,1,2,1768871407.6230164
1768871407630.8289,1435.8974358974358,,1,2,1768871407.6308289
1768871407638.6414,1428.5714285714284,,1,2,1768871407.6386414
1768871407646.454,1425.6410256410256,,1,2,1768871407.646454
1768871407654.2664,1419.047619047619,,1,2,1768871407.6542664
1768871407662.0789,1407.3260073260071,,1,2,1768871407.6620789
1768871407669.8914,1394.8717948717947,,1,2,1768871407.6698914
1768871407677.704,1378.7545787545787,,1,2,1768871407.677704
1768871407685.5164,1358.974358974359,,1,2,1768871407.6855164
1768871407693.3289,1338.4615384615383,,1,2,1768871407.6933289
1768871407701.1414,1319.4139194139193,,1,2,1768871407.7011414
1768871407708.954,1304.0293040293038,,1,2,1768871407.708954
1768871407716.7664,1289.3772893772891,,1,2,1768871407.7167664
1768871407724.5789,1276.923076923077,,1,2,1768871407.7245789
1768871407732.3914,1263.7362637362637,,1,2,1768871407.7323914
1768871407740.204,1249.084249084249,,1,2,1768871407.740204
1768871407748.0164,1239.5604395604396,,1,2,1768871407.7480164
1768871407755.8289,1236.6300366300366,,1,2,1768871407.7558289
1768871407763.6414,1232.2344322344322,,1,2,1768871407.7636414
1768871407771.454,1232.967032967033,,1,2,1768871407.771454
1768871407779.2664,1232.967032967033,,1,2,1768871407.7792664
1768871407787.0789,1229.3040293040292,,1,2,1768871407.7870789
1768871407794.8914,1229.3040293040292,,1,2,1768871407.7948914
1768871407802.704,1230.03663003663,,1,2,1768871407.802704
1768871407810.5164,1227.8388278388277,,1,2,1768871407.8105164
1768871407818.3289,1227.8388278388277,,1,2,1768871407.8183289
1768871407826.1414,1222.7106227106226,,1,2,1768871407.8261414
1768871407833.954,1218.3150183150185,,1,2,1768871407.833954
1768871407841.7664,1214.6520146520145,,1,2,1768871407.8417664
1768871407849.5789,1213.9194139194135,,1,2,1768871407.8495789
1768871407857.3914,1213.1868131868132,,1,2,1768871407.8573914
1768871407865.204,1219.7802197802198,,1,2,1768871407.865204
1768871407873.0164,1227.8388278388277,,1,2,1768871407.8730164
1768871407880.8289,1230.7692307692307,,1,2,1768871407.8808289
1768871407888.6414,1230.7692307692307,,1,2,1768871407.8886414
1768871407896.454,1233.6996336996335,,1,2,1768871407.896454
1768871407904.2664,1237.362637362637,,1,2,1768871407.9042664
1768871407912.0789,1238.8278388278388,,1,2,1768871407.9120789
1768871407919.8914,1236.6300366300366,,1,2,1768871407.9198914
1768871407927.704,1232.2344322344322,,1,2,1768871407.927704
1768871407935.5164,1227.8388278388277,,1,2,1768871407.9355164
1768871407943.3289,1221.245421245421,,1,2,1768871407.9433289
1768871407951.1414,1212.4542124542124,,1,2,1768871407.9511414
1768871407958.954,1207.3260073260074,,1,2,1768871407.958954
1768871407966.7664,1202.9304029304028,,1,2,1768871407.9667664
1768871407974.5789,1197.069597069597,,1,2,1768871407.9745789
1768871407982.3914,1189.7435897435896,,1,2,1768871407.9823914
1768871407990.204,1181.6849816849815,,1,2,1768871407.990204
1768871407998.0164,1175.0915750915751,,1,2,1768871407.9980164
1768871408005.8289,1170.6959706959706,,1,2,1768871408.0058289
1768871408013.6414,1168.4981684981683,,1,2,1768871408.0136414
1768871408021.454,1165.5677655677655,,1,2,1768871408.021454
1768871408029.2664,1163.3699633699632,,1,2,1768871408.0292664
1768871408037.0789,1161.1721611721612,,1,2,1768871408.0370789
1768871408044.8914,1161.1721611721612,,1,2,1768871408.0448914
1768871408052.704,1164.102564102564,,1,2,1768871408.052704
1768871408060.5164,1170.6959706959706,,1,2,1768871408.0605164
1768871408068.3289,1184.6153846153843,,1,2,1768871408.0683289
1768871408076.1414,1204.3956043956043,,1,2,1768871408.0761414
1768871408083.954,1230.7692307692307,,1,2,1768871408.083954
1768871408091.7664,1260.805860805861,,1,2,1768871408.0917664
1768871408099.5789,1294.5054945054944,,1,2,1768871408.0995789
1768871408107.3914,1328.2051282051282,,1,2,1768871408.1073914
1768871408115.204,1357.5091575091574,,1,2,1768871408.115204
1768871408123.0164,1382.4175824175825,,1,2,1768871408.1230164
1768871408130.8289,1398.5347985347985,,1,2,1768871408.1308289
1768871408138.6414,1408.7912087912086,,1,2,1768871408.1386414
1768871408146.454,1413.9194139194135,,1,2,1768871408.146454
1768871408154.2664,1413.9194139194135,,1,2,1768871408.1542664
1768871408162.0789,1410.989010989011,,1,2,1768871408.1620789
1768871408169.8914,1405.8608058608058,,1,2,1768871408.1698914
1768871408177.704,1400.7326007326003,,1,2,1768871408.177704
1768871408185.5164,1395.6043956043954,,0,-1,1768871408.1855164
1768871408193.3289,1390.4761904761904,,0,-1,1768871408.1933289
1768871408201.1414,1383.8827838827838,,0,-1,1768871408.2011414
1768871408208.954,1377.2893772893772,,0,-1,1768871408.208954
1768871408216.7664,1369.230769230769,,0,-1,1768871408.2167664
1768871408224.5789,1359.7069597069597,,0,-1,1768871408.2245789
1768871408232.3914,1351.6483516483515,,0,-1,1768871408.2323914
1768871408240.204,1344.3223443223442,,0,-1,1768871408.240204
1768871408248.0164,1339.194139194139,,0,-1,1768871408.2480164
1768871408255.8289,1335.5311355311355,,0,-1,1768871408.2558289
1768871408263.6414,1333.3333333333333,,0,-1,1768871408.2636414
1768871408271.454,1330.4029304029302,,0,-1,1768871408.271454
1768871408279.2664,1323.8095238095236,,0,-1,1768871408.2792664
1768871408287.0789,1314.2857142857142,,0,-1,1768871408.2870789
1768871408294.8914,1301.098901098901,,0,-1,1768871408.2948914
1768871408302.704,1290.10989010989,,0,-1,1768871408.302704
1768871408310.5164,1280.5860805860805,,0,-1,1768871408.3105164
1768871408318.3289,1273.260073260073,,0,-1,1768871408.3183289
1768871408326.1414,1270.3296703296703,,0,-1,1768871408.3261414
1768871408333.954,1271.062271062271,,0,-1,1768871408.333954
1768871408341.7664,1271.7948717948716,,0,-1,1768871408.3417664
1768871408349.5789,1272.5274725274724,,0,-1,1768871408.3495789
1768871408357.3914,1268.8644688644688,,0,-1,1768871408.3573914
1768871408365.204,1264.4688644688645,,0,-1,1768871408.365204
1768871408373.0164,1262.2710622710622,,0,-1,1768871408.3730164
1768871408380.8289,1259.3406593406592,,0,-1,1768871408.3808289
1768871408388.6414,1254.212454212454,,0,-1,1768871408.3886414
1768871408396.454,1248.3516483516482,,0,-1,1768871408.396454
1768871408404.2664,1243.2234432234432,,0,-1,1768871408.4042664
1768871408412.0789,1239.5604395604396,,0,-1,1768871408.4120789
1768871408419.8914,1238.095238095238,,0,-1,1768871408.4198914
1768871408427.704,1242.4908424908424,,0,-1,1768871408.427704
1768871408435.5164,1246.153846153846,,0,-1,1768871408.4355164
1768871408443.3289,1246.8864468864467,,0,-1,1768871408.4433289
1768871408451.1414,1246.153846153846,,0,-1,1768871408.4511414
1768871408458.954,1244.688644688645,,0,-1,1768871408.458954
1768871408466.7664,1241.0256410256409,,0,-1,1768871408.4667664
1768871408474.5789,1237.362637362637,,0,-1,1768871408.4745789
1768871408482.3914,1233.6996336996335,,0,-1,1768871408.4823914
1768871408490.204,1230.7692307692307,,0,-1,1768871408.490204
1768871408498.0164,1224.9084249084249,,0,-1,1768871408.4980164
1768871408505.8289,1219.047619047619,,0,-1,1768871408.5058289
1768871408513.6414,1217.5824175824175,,0,-1,1768871408.5136414
1768871408521.454,1216.8498168498168,,0,-1,1768871408.521454
1768871408529.2664,1210.2564102564102,,0,-1,1768871408.5292664
1768871408537.0789,1204.3956043956043,,0,-1,1768871408.5370789
1768871408544.8914,1200.7326007326008,,0,-1,1768871408.5448914
1768871408552.704,1197.8021978021975,,0,-1,1768871408.552704
1768871408560.5164,1193.4065934065934,,0,-1,1768871408.5605164
1768871408568.3289,1194.1391941391942,,0,-1,1768871408.5683289
1768871408576.1414,1200.0,,0,-1,1768871408.5761414
1768871408583.954,1209.5238095238094,,0,-1,1768871408.583954
1768871408591.7664,1224.175824175824,,0,-1,1768871408.5917664
1768871408599.5789,1248.3516483516482,,0,-1,1768871408.5995789
1768871408607.3914,1276.923076923077,,0,-1,1768871408.6073914
1768871408615.204,1303.2967032967033,,0,-1,1768871408.615204
1768871408623.0164,1330.4029304029302,,0,-1,1768871408.6230164
1768871408630.8289,1354.5787545787546,,0,-1,1768871408.6308289
1768871408638.6414,1375.8241758241757,,0,-1,1768871408.6386414
1768871408646.454,1400.7326007326003,,0,-1,1768871408.646454
1768871408654.2664,1423.4432234432234,,0,-1,1768871408.6542664
1768871408662.0789,1443.2234432234432,,0,-1,1768871408.6620789
1768871408669.8914,1460.805860805861,,0,-1,1768871408.6698914
1768871408677.704,1477.6556776556777,,0,-1,1768871408.677704
1768871408685.5164,1484.9816849816848,,0,-1,1768871408.6855164
1768871408693.3289,1492.3076923076922,,0,-1,1768871408.6933289
1768871408701.1414,1490.8424908424906,,0,-1,1768871408.7011414
1768871408708.954,1482.7838827838827,,0,-1,1768871408.708954
1768871408716.7664,1473.260073260073,,0,-1,1768871408.7167664
1768871408724.5789,1457.142857142857,,0,-1,1768871408.7245789
1768871408732.3914,1448.3516483516482,,0,-1,1768871408.7323914
1768871408740.204,1437.362637362637,,0,-1,1768871408.740204
1768871408748.0164,1430.03663003663,,0,-1,1768871408.7480164
1768871408755.8289,1422.7106227106226,,0,-1,1768871408.7558289
1768871408763.6414,1420.5128205128203,,0,-1,1768871408.7636414
1768871408771.454,1413.9194139194135,,0,-1,1768871408.771454
1768871408779.2664,1409.5238095238094,,0,-1,1768871408.7792664
1768871408787.0789,1398.5347985347985,,0,-1,1768871408.7870789
1768871408794.8914,1392.6739926739926,,0,-1,1768871408.7948914
1768871408802.704,1382.4175824175825,,0,-1,1768871408.802704
1768871408810.5164,1370.6959706959706,,0,-1,1768871408.8105164
1768871408818.3289,1361.1721611721612,,0,-1,1768871408.8183289
1768871408826.1414,1347.985347985348,,0,-1,1768871408.8261414
1768871408833.954,1332.6007326007325,,0,-1,1768871408.833954
1768871408841.7664,1322.3443223443223,,0,-1,1768871408.8417664
1768871408849.5789,1317.216117216117,,0,-1,1768871408.8495789
1768871408857.3914,1312.8205128205127,,0,-1,1768871408.8573914
1768871408865.204,1306.227106227106,,0,-1,1768871408.865204
1768871408873.0164,1293.040293040293,,0,-1,1768871408.8730164
1768871408880.8289,1268.8644688644688,,0,-1,1768871408.8808289
1768871408888.6414,1235.8974358974358,,0,-1,1768871408.8886414
1768871408896.454,1197.069597069597,,0,-1,1768871408.896454
1768871408904.2664,1152.3809523809523,,0,-1,1768871408.9042664
1768871408912.0789,1106.9597069597069,,0,-1,1768871408.9120789
1768871408919.8914,1067.3992673992673,,0,-1,1768871408.9198914
1768871408927.704,1034.4322344322345,,0,-1,1768871408.927704
1768871408935.5164,1011.7216117216116,,0,-1,1768871408.9355164
1768871408943.3289,1003.6630036630036,,0,-1,1768871408.9433289
1768871408951.1414,999.2673992673992,,0,-1,1768871408.9511414
1768871408958.954,1002.9304029304028,,0,-1,1768871408.958954
1768871408966.7664,1019.7802197802196,,0,-1,1768871408.9667664
1768871408974.5789,1037.362637362637,,0,-1,1768871408.9745789
1768871408982.3914,1054.212454212454,,0,-1,1768871408.9823914
1768871408990.204,1075.4578754578754,,0,-1,1768871408.990204
1768871408998.0164,1090.10989010989,,0,-1,1768871408.9980164
1768871409005.8289,1105.4945054945051,,0,-1,1768871409.0058289
1768871409013.6414,1119.4139194139193,,0,-1,1768871409.0136414
1768871409021.454,1129.6703296703297,,0,-1,1768871409.021454
1768871409029.2664,1146.5201465201465,,0,-1,1768871409.0292664
1768871409037.0789,1161.1721611721612,,0,-1,1768871409.0370789
1768871409044.8914,1172.161172161172,,0,-1,1768871409.0448914
1768871409052.704,1186.080586080586,,0,-1,1768871409.052704
1768871409060.5164,1198.5347985347985,,0,-1,1768871409.0605164
1768871409068.3289,1208.7912087912086,,0,-1,1768871409.0683289
1768871409076.1414,1216.117216117216,,0,-1,1768871409.0761414
1768871409083.954,1224.175824175824,,0,-1,1768871409.083954
1768871409091.7664,1230.7692307692307,,0,-1,1768871409.0917664
1768871409099.5789,1235.8974358974358,,0,-1,1768871409.0995789
1768871409107.3914,1245.4212454212454,,0,-1,1768871409.1073914
1768871409115.204,1256.4102564102564,,0,-1,1768871409.115204
1768871409123.0164,1270.3296703296703,,0,-1,1768871409.1230164
1768871409130.8289,1285.7142857142856,,0,-1,1768871409.1308289
1768871409138.6414,1312.087912087912,,0,-1,1768871409.1386414
1768871409146.454,1340.6593406593406,,0,-1,1768871409.146454
1768871409154.2664,1372.8937728937728,,0,-1,1768871409.1542664
1768871409162.0789,1403.6630036630036,,0,-1,1768871409.1620789
1768871409169.8914,1435.8974358974358,,0,-1,1768871409.1698914
1768871409177.704,1468.8644688644688,,0,-1,1768871409.177704
1768871409185.5164,1498.9010989010987,,0,-1,1768871409.1855164
1768871409193.3289,1523.0769230769229,,0,-1,1768871409.1933289
1768871409201.1414,1539.194139194139,,0,-1,1768871409.2011414
1768871409208.954,1549.4505494505493,,0,-1,1768871409.208954
1768871409216.7664,1550.18315018315,,0,-1,1768871409.2167664
1768871409224.5789,1547.2527472527472,,0,-1,1768871409.2245789
1768871409232.3914,1541.3919413919414,,0,-1,1768871409.2323914
1768871409240.204,1533.3333333333333,,0,-1,1768871409.240204
1768871409248.0164,1522.3443223443223,,0,-1,1768871409.2480164
1768871409255.8289,1515.018315018315,,0,-1,1768871409.2558289
1768871409263.6414,1512.087912087912,,0,-1,1768871409.2636414
1768871409271.454,1509.1575091575091,,0,-1,1768871409.271454
1768871409279.2664,1506.9597069597069,,0,-1,1768871409.2792664
1768871409287.0789,1506.9597069597069,,0,-1,1768871409.2870789
1768871409294.8914,1503.2967032967033,,0,-1,1768871409.2948914
1768871409302.704,1491.5750915750914,,0,-1,1768871409.302704
1768871409310.5164,1476.923076923077,,0,-1,1768871409.3105164
1768871409318.3289,1463.7362637362637,,0,-1,1768871409.3183289
1768871409326.1414,1454.212454212454,,0,-1,1768871409.3261414
1768871409333.954,1443.2234432234432,,0,-1,1768871409.333954
1768871409341.7664,1432.2344322344322,,0,-1,1768871409.3417664
1768871409349.5789,1419.7802197802198,,0,-1,1768871409.3495789
1768871409357.3914,1411.7216117216117,,0,-1,1768871409.3573914
1768871409365.204,1409.5238095238094,,0,-1,1768871409.365204
1768871409373.0164,1413.9194139194135,,0,-1,1768871409.3730164
1768871409380.8289,1417.5824175824175,,0,-1,1768871409.3808289
1768871409388.6414,1420.5128205128203,,0,-1,1768871409.3886414
1768871409396.454,1420.5128205128203,,0,-1,1768871409.396454
1768871409404.2664,1420.5128205128203,,0,-1,1768871409.4042664
1768871409412.0789,1419.047619047619,,0,-1,1768871409.4120789
1768871409419.8914,1420.5128205128203,,0,-1,1768871409.4198914
1768871409427.704,1420.5128205128203,,0,-1,1768871409.427704
1768871409435.5164,1421.245421245421,,0,-1,1768871409.4355164
1768871409443.3289,1418.3150183150185,,0,-1,1768871409.4433289
1768871409451.1414,1414.6520146520145,,0,-1,1768871409.4511414
1768871409458.954,1411.7216117216117,,0,-1,1768871409.458954
1768871409466.7664,1414.6520146520145,,0,-1,1768871409.4667664
1768871409474.5789,1413.9194139194135,,0,-1,1768871409.4745789
1768871409482.3914,1413.9194139194135,,0,-1,1768871409.4823914
1768871409490.204,1416.117216117216,,0,-1,1768871409.490204
1768871409498.0164,1421.245421245421,,0,-1,1768871409.4980164
1768871409505.8289,1420.5128205128203,,0,-1,1768871409.5058289
1768871409513.6414,1417.5824175824175,,0,-1,1768871409.5136414
1768871409521.454,1405.128205128205,,0,-1,1768871409.521454
1768871409529.2664,1394.8717948717947,,0,-1,1768871409.5292664
1768871409537.0789,1382.4175824175825,,0,-1,1768871409.5370789
1768871409544.8914,1369.230769230769,,0,-1,1768871409.5448914
1768871409552.704,1353.113553113553,,0,-1,1768871409.552704
1768871409560.5164,1336.9963369963368,,0,-1,1768871409.5605164
1768871409568.3289,1319.4139194139193,,0,-1,1768871409.5683289
1768871409576.1414,1301.8315018315018,,0,-1,1768871409.5761414
1768871409583.954,1288.6446886446886,,0,-1,1768871409.583954
1768871409591.7664,1282.7838827838827,,0,-1,1768871409.5917664
1768871409599.5789,1280.5860805860805,,0,-1,1768871409.5995789
1768871409607.3914,1276.923076923077,,0,-1,1768871409.6073914
1768871409615.204,1272.5274725274724,,0,-1,1768871409.615204
1768871409623.0164,1266.6666666666663,,0,-1,1768871409.6230164
1768871409630.8289,1259.3406593406592,,0,-1,1768871409.6308289
1768871409638.6414,1252.7472527472526,,0,-1,1768871409.6386414
1768871409646.454,1252.014652014652,,0,-1,1768871409.646454
1768871409654.2664,1258.6080586080586,,0,-1,1768871409.6542664
1768871409662.0789,1271.062271062271,,0,-1,1768871409.6620789
1768871409669.8914,1291.5750915750914,,0,-1,1768871409.6698914
1768871409677.704,1315.018315018315,,0,-1,1768871409.677704
1768871409685.5164,1337.7289377289376,,0,-1,1768871409.6855164
1768871409693.3289,1360.4395604395604,,0,-1,1768871409.6933289
1768871409701.1414,1382.4175824175825,,0,-1,1768871409.7011414
1768871409708.954,1405.128205128205,,0,-1,1768871409.708954
1768871409716.7664,1424.9084249084249,,0,-1,1768871409.7167664
1768871409724.5789,1443.2234432234432,,0,-1,1768871409.7245789
1768871409732.3914,1460.07326007326,,0,-1,1768871409.7323914
1768871409740.204,1475.4578754578754,,0,-1,1768871409.740204
1768871409748.0164,1487.9120879120878,,0,-1,1768871409.7480164
1768871409755.8289,1500.3663003663005,,0,-1,1768871409.7558289
1768871409763.6414,1510.6227106227104,,0,-1,1768871409.7636414
1768871409771.454,1518.6813186813183,,0,-1,1768871409.771454
1768871409779.2664,1520.8791208791208,,0,-1,1768871409.7792664
1768871409787.0789,1519.4139194139193,,0,-1,1768871409.7870789
1768871409794.8914,1514.2857142857142,,0,-1,1768871409.7948914
1768871409802.704,1506.227106227106,,0,-1,1768871409.802704
1768871409810.5164,1494.5054945054944,,0,-1,1768871409.8105164
1768871409818.3289,1478.3882783882782,,0,-1,1768871409.8183289
1768871409826.1414,1463.7362637362637,,0,-1,1768871409.8261414
1768871409833.954,1448.3516483516482,,0,-1,1768871409.833954
1768871409841.7664,1435.164835164835,,0,-1,1768871409.8417664
1768871409849.5789,1420.5128205128203,,0,-1,1768871409.8495789
1768871409857.3914,1406.5934065934066,,0,-1,1768871409.8573914
1768871409865.204,1394.139194139194,,0,-1,1768871409.865204
1768871409873.0164,1383.8827838827838,,0,-1,1768871409.8730164
1768871409880.8289,1375.8241758241757,,0,-1,1768871409.8808289
1768871409888.6414,1370.6959706959706,,0,-1,1768871409.8886414
1768871409896.454,1367.7655677655678,,0,-1,1768871409.896454
1768871409904.2664,1365.5677655677655,,0,-1,1768871409.9042664
1768871409912.0789,1363.3699633699632,,0,-1,1768871409.9120789
1768871409919.8914,1358.241758241758,,0,-1,1768871409.9198914
1768871409927.704,1353.8461538461538,,0,-1,1768871409.927704
1768871409935.5164,1348.7179487179487,,0,-1,1768871409.9355164
1768871409943.3289,1343.5897435897434,,0,-1,1768871409.9433289
1768871409951.1414,1341.3919413919414,,0,-1,1768871409.9511414
1768871409958.954,1343.5897435897434,,0,-1,1768871409.958954
1768871409966.7664,1341.3919413919414,,0,-1,1768871409.9667664
1768871409974.5789,1339.194139194139,,0,-1,1768871409.9745789
1768871409982.3914,1339.194139194139,,0,-1,1768871409.9823914
1768871409990.204,1334.7985347985348,,1,3,1768871409.990204
1768871409998.0164,1326.739926739927,,1,3,1768871409.9980164
1768871410005.8289,1317.9487179487178,,1,3,1768871410.0058289
1768871410013.6414,1310.6227106227104,,1,3,1768871410.0136414
1768871410021.454,1306.9597069597069,,1,3,1768871410.021454
1768871410029.2664,1302.5641025641023,,1,3,1768871410.0292664
1768871410037.0789,1297.4358974358977,,1,3,1768871410.0370789
1768871410044.8914,1289.3772893772891,,1,3,1768871410.0448914
1768871410052.704,1282.051282051282,,1,3,1768871410.052704
1768871410060.5164,1275.4578754578754,,1,3,1768871410.0605164
1768871410068.3289,1271.7948717948716,,1,3,1768871410.0683289
1768871410076.1414,1269.5970695970695,,1,3,1768871410.0761414
1768871410083.954,1263.7362637362637,,1,3,1768871410.083954
1768871410091.7664,1253.479853479853,,1,3,1768871410.0917664
1768871410099.5789,1243.2234432234432,,1,3,1768871410.0995789
1768871410107.3914,1236.6300366300366,,1,3,1768871410.1073914
1768871410115.204,1230.03663003663,,1,3,1768871410.115204
1768871410123.0164,1225.6410256410256,,1,3,1768871410.1230164
1768871410130.8289,1227.8388278388277,,1,3,1768871410.1308289
1768871410138.6414,1225.6410256410256,,1,3,1768871410.1386414
1768871410146.454,1222.7106227106226,,1,3,1768871410.146454
1768871410154.2664,1225.6410256410256,,1,3,1768871410.1542664
1768871410162.0789,1227.106227106227,,1,3,1768871410.1620789
1768871410169.8914,1227.106227106227,,1,3,1768871410.1698914
1768871410177.704,1227.106227106227,,1,3,1768871410.177704
1768871410185.5164,1229.3040293040292,,1,3,1768871410.1855164
1768871410193.3289,1241.0256410256409,,1,3,1768871410.1933289
1768871410201.1414,1251.2820512820513,,1,3,1768871410.2011414
1768871410208.954,1263.7362637362637,,1,3,1768871410.208954
1768871410216.7664,1285.7142857142856,,1,3,1768871410.2167664
1768871410224.5789,1309.1575091575091,,1,3,1768871410.2245789
1768871410232.3914,1335.5311355311355,,1,3,1768871410.2323914
1768871410240.204,1367.032967032967,,1,3,1768871410.240204
1768871410248.0164,1394.139194139194,,1,3,1768871410.2480164
1768871410255.8289,1424.9084249084249,,1,3,1768871410.2558289
1768871410263.6414,1450.5494505494505,,1,3,1768871410.2636414
1768871410271.454,1469.5970695970695,,1,3,1768871410.271454
1768871410279.2664,1487.9120879120878,,1,3,1768871410.2792664
1768871410287.0789,1495.970695970696,,1,3,1768871410.2870789
1768871410294.8914,1501.098901098901,,1,3,1768871410.2948914
1768871410302.704,1498.9010989010987,,1,3,1768871410.302704
1768871410310.5164,1493.040293040293,,1,3,1768871410.3105164
1768871410318.3289,1483.5164835164835,,1,3,1768871410.3183289
1768871410326.1414,1470.3296703296703,,1,3,1768871410.3261414
1768871410333.954,1457.875457875458,,1,3,1768871410.333954
1768871410341.7664,1447.6190476190477,,1,3,1768871410.3417664
1768871410349.5789,1441.7582417582416,,1,3,1768871410.3495789
1768871410357.3914,1431.5018315018317,,1,3,1768871410.3573914
1768871410365.204,1424.175824175824,,1,3,1768871410.365204
1768871410373.0164,1411.7216117216117,,1,3,1768871410.3730164
1768871410380.8289,1405.128205128205,,1,3,1768871410.3808289
1768871410388.6414,1393.4065934065934,,1,3,1768871410.3886414
1768871410396.454,1383.8827838827838,,1,3,1768871410.396454
1768871410404.2664,1372.161172161172,,1,3,1768871410.4042664
1768871410412.0789,1364.102564102564,,1,3,1768871410.4120789
1768871410419.8914,1350.18315018315,,1,3,1768871410.4198914
1768871410427.704,1339.194139194139,,1,3,1768871410.427704
1768871410435.5164,1322.3443223443223,,1,3,1768871410.4355164
1768871410443.3289,1315.7509157509155,,1,3,1768871410.4433289
1768871410451.1414,1306.9597069597069,,1,3,1768871410.4511414
1768871410458.954,1306.227106227106,,1,3,1768871410.458954
1768871410466.7664,1309.89010989011,,1,3,1768871410.4667664
1768871410474.5789,1312.8205128205127,,1,3,1768871410.4745789
1768871410482.3914,1320.8791208791208,,1,3,1768871410.4823914
1768871410490.204,1323.076923076923,,1,3,1768871410.490204
1768871410498.0164,1327.4725274725274,,1,3,1768871410.4980164
1768871410505.8289,1323.8095238095236,,1,3,1768871410.5058289
1768871410513.6414,1323.076923076923,,1,3,1768871410.5136414
1768871410521.454,1316.4835164835165,,1,3,1768871410.521454
1768871410529.2664,1315.018315018315,,1,3,1768871410.5292664
1768871410537.0789,1308.4249084249084,,1,3,1768871410.5370789
1768871410544.8914,1309.1575091575091,,1,3,1768871410.5448914
1768871410552.704,1305.4945054945051,,1,3,1768871410.552704
1768871410560.5164,1304.0293040293038,,1,3,1768871410.5605164
1768871410568.3289,1302.5641025641023,,1,3,1768871410.5683289
1768871410576.1414,1299.6336996336995,,1,3,1768871410.5761414
1768871410583.954,1295.2380952380952,,1,3,1768871410.583954
1768871410591.7664,1287.9120879120878,,1,3,1768871410.5917664
1768871410599.5789,1284.2490842490845,,1,3,1768871410.5995789
1768871410607.3914,1281.3186813186812,,1,3,1768871410.6073914
1768871410615.204,1282.7838827838827,,1,3,1768871410.615204
1768871410623.0164,1287.179487179487,,1,3,1768871410.6230164
1768871410630.8289,1289.3772893772891,,1,3,1768871410.6308289
1768871410638.6414,1294.5054945054944,,1,3,1768871410.6386414
1768871410646.454,1292.3076923076922,,1,3,1768871410.646454
1768871410654.2664,1293.040293040293,,1,3,1768871410.6542664
1768871410662.0789,1288.6446886446886,,1,3,1768871410.6620789
1768871410669.8914,1288.6446886446886,,1,3,1768871410.6698914
1768871410677.704,1284.9816849816848,,1,3,1768871410.677704
1768871410685.5164,1284.9816849816848,,1,3,1768871410.6855164
1768871410693.3289,1279.8534798534797,,1,3,1768871410.6933289
1768871410701.1414,1273.260073260073,,1,3,1768871410.7011414
1768871410708.954,1265.9340659340658,,1,3,1768871410.708954
1768871410716.7664,1253.479853479853,,1,3,1768871410.7167664
1768871410724.5789,1246.8864468864467,,1,3,1768871410.7245789
1768871410732.3914,1239.5604395604396,,1,3,1768871410.7323914
1768871410740.204,1239.5604395604396,,1,3,1768871410.740204
1768871410748.0164,1248.3516483516482,,1,3,1768871410.7480164
1768871410755.8289,1262.2710622710622,,1,3,1768871410.7558289
1768871410763.6414,1283.5164835164835,,1,3,1768871410.7636414
1768871410771.454,1304.7619047619046,,1,3,1768871410.771454
1768871410779.2664,1326.739926739927,,1,3,1768871410.7792664
1768871410787.0789,1352.3809523809523,,1,3,1768871410.7870789
1768871410794.8914,1376.5567765567764,,1,3,1768871410.7948914
1768871410802.704,1394.8717948717947,,1,3,1768871410.802704
1768871410810.5164,1408.7912087912086,,1,3,1768871410.8105164
1768871410818.3289,1421.9780219780218,,1,3,1768871410.8183289
1768871410826.1414,1435.164835164835,,1,3,1768871410.8261414
1768871410833.954,1451.2820512820513,,1,3,1768871410.833954
1768871410841.7664,1465.9340659340658,,1,3,1768871410.8417664
1768871410849.5789,1480.5860805860805,,1,3,1768871410.8495789
1768871410857.3914,1491.5750915750914,,1,3,1768871410.8573914
1768871410865.204,1496.7032967032967,,1,3,1768871410.865204
1768871410873.0164,1497.4358974358972,,1,3,1768871410.8730164
1768871410880.8289,1495.2380952380952,,1,3,1768871410.8808289
1768871410888.6414,1484.2490842490845,,1,3,1768871410.8886414
1768871410896.454,1465.9340659340658,,1,3,1768871410.896454
1768871410904.2664,1452.014652014652,,1,3,1768871410.9042664
1768871410912.0789,1437.362637362637,,1,3,1768871410.9120789
1768871410919.8914,1422.7106227106226,,1,3,1768871410.9198914
1768871410927.704,1410.989010989011,,1,3,1768871410.927704
1768871410935.5164,1394.139194139194,,1,3,1768871410.9355164
1768871410943.3289,1382.4175824175825,,1,3,1768871410.9433289
1768871410951.1414,1370.6959706959706,,1,3,1768871410.9511414
1768871410958.954,1358.241758241758,,1,3,1768871410.958954
1768871410966.7664,1350.18315018315,,1,3,1768871410.9667664
1768871410974.5789,1347.985347985348,,1,3,1768871410.9745789
1768871410982.3914,1345.7875457875457,,1,3,1768871410.9823914
1768871410990.204,1350.18315018315,,1,3,1768871410.990204
1768871410998.0164,1353.8461538461538,,1,3,1768871410.9980164
1768871411005.8289,1354.5787545787546,,1,3,1768871411.0058289
1768871411013.6414,1356.7765567765566,,1,3,1768871411.0136414
1768871411021.454,1358.241758241758,,1,3,1768871411.021454
1768871411029.2664,1352.3809523809523,,1,3,1768871411.0292664
1768871411037.0789,1350.9157509157508,,1,3,1768871411.0370789
1768871411044.8914,1349.4505494505493,,1,3,1768871411.0448914
1768871411052.704,1342.857142857143,,1,3,1768871411.052704
1768871411060.5164,1335.5311355311355,,1,3,1768871411.0605164
1768871411068.3289,1326.739926739927,,1,3,1768871411.0683289
1768871411076.1414,1320.14652014652,,1,3,1768871411.0761414
1768871411083.954,1310.6227106227104,,1,3,1768871411.083954
1768871411091.7664,1308.4249084249084,,1,3,1768871411.0917664
1768871411099.5789,1310.6227106227104,,1,3,1768871411.0995789
1768871411107.3914,1315.018315018315,,1,3,1768871411.1073914
1768871411115.204,1318.6813186813183,,1,3,1768871411.115204
1768871411123.0164,1320.8791208791208,,1,3,1768871411.1230164
1768871411130.8289,1317.216117216117,,1,3,1768871411.1308289
1768871411138.6414,1312.8205128205127,,1,3,1768871411.1386414
1768871411146.454,1310.6227106227104,,1,3,1768871411.146454
1768871411154.2664,1306.227106227106,,1,3,1768871411.1542664
1768871411162.0789,1292.3076923076922,,1,3,1768871411.1620789
1768871411169.8914,1280.5860805860805,,1,3,1768871411.1698914
1768871411177.704,1274.7252747252746,,1,3,1768871411.177704
1768871411185.5164,1265.9340659340658,,1,3,1768871411.1855164
1768871411193.3289,1258.6080586080586,,1,3,1768871411.1933289
1768871411201.1414,1254.9450549450548,,1,3,1768871411.2011414
1768871411208.954,1250.5494505494505,,1,3,1768871411.208954
1768871411216.7664,1242.4908424908424,,1,3,1768871411.2167664
1768871411224.5789,1240.29304029304,,1,3,1768871411.2245789
1768871411232.3914,1234.4322344322345,,1,3,1768871411.2323914
1768871411240.204,1230.03663003663,,1,3,1768871411.240204
1768871411248.0164,1232.2344322344322,,1,3,1768871411.2480164
1768871411255.8289,1236.6300366300366,,1,3,1768871411.2558289
1768871411263.6414,1239.5604395604396,,1,3,1768871411.2636414
1768871411271.454,1241.0256410256409,,1,3,1768871411.271454
1768871411279.2664,1249.8168498168498,,1,3,1768871411.2792664
1768871411287.0789,1258.6080586080586,,1,3,1768871411.2870789
1768871411294.8914,1269.5970695970695,,1,3,1768871411.2948914
1768871411302.704,1280.5860805860805,,1,3,1768871411.302704
1768871411310.5164,1294.5054945054944,,1,3,1768871411.3105164
1768871411318.3289,1312.087912087912,,1,3,1768871411.3183289
1768871411326.1414,1328.937728937729,,1,3,1768871411.3261414
1768871411333.954,1347.985347985348,,1,3,1768871411.333954
1768871411341.7664,1374.3589743589744,,1,3,1768871411.3417664
1768871411349.5789,1402.9304029304028,,1,3,1768871411.3495789
1768871411357.3914,1428.5714285714284,,1,3,1768871411.3573914
1768871411365.204,1449.084249084249,,1,3,1768871411.365204
1768871411373.0164,1468.131868131868,,1,3,1768871411.3730164
1768871411380.8289,1485.7142857142856,,1,3,1768871411.3808289
1768871411388.6414,1503.2967032967033,,1,3,1768871411.3886414
1768871411396.454,1519.4139194139193,,1,3,1768871411.396454
1768871411404.2664,1528.937728937729,,1,3,1768871411.4042664
1768871411412.0789,1532.6007326007325,,1,3,1768871411.4120789
1768871411419.8914,1527.4725274725274,,1,3,1768871411.4198914
1768871411427.704,1513.5531135531137,,1,3,1768871411.427704
1768871411435.5164,1495.970695970696,,1,3,1768871411.4355164
1768871411443.3289,1480.5860805860805,,1,3,1768871411.4433289
1768871411451.1414,1465.9340659340658,,1,3,1768871411.4511414
1768871411458.954,1454.212454212454,,1,3,1768871411.458954
1768871411466.7664,1440.29304029304,,1,3,1768871411.4667664
1768871411474.5789,1431.5018315018317,,1,3,1768871411.4745789
1768871411482.3914,1424.9084249084249,,1,3,1768871411.4823914
1768871411490.204,1416.8498168498168,,1,3,1768871411.490204
1768871411498.0164,1403.6630036630036,,1,3,1768871411.4980164
1768871411505.8289,1386.8131868131868,,1,3,1768871411.5058289
1768871411513.6414,1374.3589743589744,,1,3,1768871411.5136414
1768871411521.454,1364.8351648351647,,1,3,1768871411.521454
1768871411529.2664,1353.113553113553,,1,3,1768871411.5292664
1768871411537.0789,1345.7875457875457,,1,3,1768871411.5370789
1768871411544.8914,1342.124542124542,,1,3,1768871411.5448914
1768871411552.704,1342.124542124542,,1,3,1768871411.552704
1768871411560.5164,1343.5897435897434,,1,3,1768871411.5605164
1768871411568.3289,1345.054945054945,,1,3,1768871411.5683289
1768871411576.1414,1347.2527472527472,,1,3,1768871411.5761414
1768871411583.954,1350.18315018315,,1,3,1768871411.583954
1768871411591.7664,1350.18315018315,,1,3,1768871411.5917664
1768871411599.5789,1351.6483516483515,,1,3,1768871411.5995789
1768871411607.3914,1349.4505494505493,,1,3,1768871411.6073914
1768871411615.204,1343.5897435897434,,1,3,1768871411.615204
1768871411623.0164,1333.3333333333333,,1,3,1768871411.6230164
1768871411630.8289,1322.3443223443223,,1,3,1768871411.6308289
1768871411638.6414,1314.2857142857142,,1,3,1768871411.6386414
1768871411646.454,1309.1575091575091,,1,3,1768871411.646454
1768871411654.2664,1304.7619047619046,,1,3,1768871411.6542664
1768871411662.0789,1304.7619047619046,,0,-1,1768871411.6620789
1768871411669.8914,1306.227106227106,,0,-1,1768871411.6698914
1768871411677.704,1307.6923076923076,,0,-1,1768871411.677704
1768871411685.5164,1309.1575091575091,,0,-1,1768871411.6855164
1768871411693.3289,1306.9597069597069,,0,-1,1768871411.6933289
1768871411701.1414,1304.7619047619046,,0,-1,1768871411.7011414
1768871411708.954,1301.8315018315018,,0,-1,1768871411.708954
1768871411716.7664,1298.9010989010987,,0,-1,1768871411.7167664
1768871411724.5789,1297.4358974358977,,0,-1,1768871411.7245789
1768871411732.3914,1295.970695970696,,0,-1,1768871411.7323914
1768871411740.204,1293.7728937728937,,0,-1,1768871411.740204
1768871411748.0164,1290.8424908424909,,0,-1,1768871411.7480164
1768871411755.8289,1289.3772893772891,,0,-1,1768871411.7558289
1768871411763.6414,1289.3772893772891,,0,-1,1768871411.7636414
1768871411771.454,1284.9816849816848,,0,-1,1768871411.771454
1768871411779.2664,1280.5860805860805,,0,-1,1768871411.7792664
1768871411787.0789,1276.190476190476,,0,-1,1768871411.7870789
1768871411794.8914,1271.7948717948716,,0,-1,1768871411.7948914
1768871411802.704,1265.9340659340658,,0,-1,1768871411.802704
1768871411810.5164,1260.07326007326,,0,-1,1768871411.8105164
1768871411818.3289,1260.07326007326,,0,-1,1768871411.8183289
1768871411826.1414,1264.4688644688645,,0,-1,1768871411.8261414
1768871411833.954,1275.4578754578754,,0,-1,1768871411.833954
1768871411841.7664,1290.8424908424909,,0,-1,1768871411.8417664
1768871411849.5789,1309.89010989011,,0,-1,1768871411.8495789
1768871411857.3914,1332.6007326007325,,0,-1,1768871411.8573914
1768871411865.204,1356.7765567765566,,0,-1,1768871411.865204
1768871411873.0164,1380.952380952381,,0,-1,1768871411.8730164
1768871411880.8289,1404.3956043956043,,0,-1,1768871411.8808289
1768871411888.6414,1429.3040293040292,,0,-1,1768871411.8886414
1768871411896.454,1449.8168498168498,,0,-1,1768871411.896454
1768871411904.2664,1470.3296703296703,,0,-1,1768871411.9042664
1768871411912.0789,1479.120879120879,,0,-1,1768871411.9120789
1768871411919.8914,1487.9120879120878,,0,-1,1768871411.9198914
1768871411927.704,1495.970695970696,,0,-1,1768871411.927704
1768871411935.5164,1504.7619047619046,,0,-1,1768871411.9355164
1768871411943.3289,1512.8205128205127,,0,-1,1768871411.9433289
1768871411951.1414,1519.4139194139193,,0,-1,1768871411.9511414
1768871411958.954,1525.2747252747251,,0,-1,1768871411.958954
1768871411966.7664,1528.2051282051282,,0,-1,1768871411.9667664
1768871411974.5789,1527.4725274725274,,0,-1,1768871411.9745789
1768871411982.3914,1523.8095238095236,,0,-1,1768871411.9823914
1768871411990.204,1515.018315018315,,0,-1,1768871411.990204
1768871411998.0164,1504.0293040293038,,0,-1,1768871411.9980164
1768871412005.8289,1493.040293040293,,0,-1,1768871412.0058289
1768871412013.6414,1480.5860805860805,,0,-1,1768871412.0136414
1768871412021.454,1465.9340659340658,,0,-1,1768871412.021454
1768871412029.2664,1448.3516483516482,,0,-1,1768871412.0292664
1768871412037.0789,1432.2344322344322,,0,-1,1768871412.0370789
1768871412044.8914,1418.3150183150185,,0,-1,1768871412.0448914
1768871412052.704,1405.8608058608058,,0,-1,1768871412.052704
1768871412060.5164,1397.069597069597,,0,-1,1768871412.0605164
1768871412068.3289,1390.4761904761904,,0,-1,1768871412.0683289
1768871412076.1414,1385.3479853479853,,0,-1,1768871412.0761414
1768871412083.954,1379.4871794871794,,0,-1,1768871412.083954
1768871412091.7664,1375.091575091575,,0,-1,1768871412.0917664
1768871412099.5789,1368.4981684981683,,0,-1,1768871412.0995789
1768871412107.3914,1362.6373626373625,,0,-1,1768871412.1073914
1768871412115.204,1359.7069597069597,,0,-1,1768871412.115204
1768871412123.0164,1358.974358974359,,0,-1,1768871412.1230164
1768871412130.8289,1356.7765567765566,,0,-1,1768871412.1308289
1768871412138.6414,1357.5091575091574,,0,-1,1768871412.1386414
1768871412146.454,1360.4395604395604,,0,-1,1768871412.146454
1768871412154.2664,1358.974358974359,,0,-1,1768871412.1542664
1768871412162.0789,1363.3699633699632,,0,-1,1768871412.1620789
1768871412169.8914,1361.1721611721612,,0,-1,1768871412.1698914
1768871412177.704,1358.241758241758,,0,-1,1768871412.177704
1768871412185.5164,1356.7765567765566,,0,-1,1768871412.1855164
1768871412193.3289,1356.7765567765566,,0,-1,1768871412.1933289
1768871412201.1414,1348.7179487179487,,0,-1,1768871412.2011414
1768871412208.954,1342.857142857143,,0,-1,1768871412.208954
1768871412216.7664,1338.4615384615383,,0,-1,1768871412.2167664
1768871412224.5789,1331.135531135531,,0,-1,1768871412.2245789
1768871412232.3914,1326.007326007326,,0,-1,1768871412.2323914
1768871412240.204,1326.007326007326,,0,-1,1768871412.240204
1768871412248.0164,1320.8791208791208,,0,-1,1768871412.2480164
1768871412255.8289,1313.5531135531137,,0,-1,1768871412.2558289
1768871412263.6414,1305.4945054945051,,0,-1,1768871412.2636414
1768871412271.454,1297.4358974358977,,0,-1,1768871412.271454
1768871412279.2664,1297.4358974358977,,0,-1,1768871412.2792664
1768871412287.0789,1293.7728937728937,,0,-1,1768871412.2870789
1768871412294.8914,1295.2380952380952,,0,-1,1768871412.2948914
1768871412302.704,1293.040293040293,,0,-1,1768871412.302704
1768871412310.5164,1293.7728937728937,,0,-1,1768871412.3105164
1768871412318.3289,1291.5750915750914,,0,-1,1768871412.3183289
1768871412326.1414,1286.4468864468863,,0,-1,1768871412.3261414
1768871412333.954,1279.120879120879,,0,-1,1768871412.333954
1768871412341.7664,1267.3992673992673,,0,-1,1768871412.3417664
1768871412349.5789,1259.3406593406592,,0,-1,1768871412.3495789
1768871412357.3914,1252.7472527472526,,0,-1,1768871412.3573914
1768871412365.204,1243.956043956044,,0,-1,1768871412.365204
1768871412373.0164,1239.5604395604396,,0,-1,1768871412.3730164
1768871412380.8289,1238.095238095238,,0,-1,1768871412.3808289
1768871412388.6414,1252.7472527472526,,0,-1,1768871412.3886414
1768871412396.454,1274.7252747252746,,0,-1,1768871412.396454
1768871412404.2664,1298.168498168498,,0,-1,1768871412.4042664
1768871412412.0789,1330.4029304029302,,0,-1,1768871412.4120789
1768871412419.8914,1358.974358974359,,0,-1,1768871412.4198914
1768871412427.704,1388.278388278388,,0,-1,1768871412.427704
1768871412435.5164,1408.7912087912086,,0,-1,1768871412.4355164
1768871412443.3289,1423.4432234432234,,0,-1,1768871412.4433289
1768871412451.1414,1438.8278388278388,,0,-1,1768871412.4511414
1768871412458.954,1448.3516483516482,,0,-1,1768871412.458954
1768871412466.7664,1463.7362637362637,,0,-1,1768871412.4667664
1768871412474.5789,1477.6556776556777,,0,-1,1768871412.4745789
1768871412482.3914,1497.4358974358972,,0,-1,1768871412.4823914
1768871412490.204,1510.6227106227104,,0,-1,1768871412.490204
1768871412498.0164,1522.3443223443223,,0,-1,1768871412.4980164
1768871412505.8289,1523.0769230769229,,0,-1,1768871412.5058289
1768871412513.6414,1525.2747252747251,,0,-1,1768871412.5136414
1768871412521.454,1518.6813186813183,,0,-1,1768871412.521454
1768871412529.2664,1515.018315018315,,0,-1,1768871412.5292664
1768871412537.0789,1501.8315018315018,,0,-1,1768871412.5370789
1768871412544.8914,1495.2380952380952,,0,-1,1768871412.5448914
1768871412552.704,1484.9816849816848,,0,-1,1768871412.552704
1768871412560.5164,1476.190476190476,,0,-1,1768871412.5605164
1768871412568.3289,1462.2710622710622,,0,-1,1768871412.5683289
1768871412576.1414,1449.084249084249,,0,-1,1768871412.5761414
1768871412583.954,1435.8974358974358,,0,-1,1768871412.583954
1768871412591.7664,1419.7802197802198,,0,-1,1768871412.5917664
1768871412599.5789,1406.5934065934066,,0,-1,1768871412.5995789
1768871412607.3914,1387.5457875457876,,0,-1,1768871412.6073914
1768871412615.204,1372.8937728937728,,0,-1,1768871412.615204
1768871412623.0164,1361.904761904762,,0,-1,1768871412.6230164
1768871412630.8289,1350.9157509157508,,0,-1,1768871412.6308289
1768871412638.6414,1345.054945054945,,0,-1,1768871412.6386414
1768871412646.454,1334.7985347985348,,0,-1,1768871412.646454
1768871412654.2664,1326.007326007326,,0,-1,1768871412.6542664
1768871412662.0789,1325.2747252747251,,0,-1,1768871412.6620789
1768871412669.8914,1326.739926739927,,0,-1,1768871412.6698914
1768871412677.704,1328.2051282051282,,0,-1,1768871412.677704
1768871412685.5164,1334.065934065934,,0,-1,1768871412.6855164
1768871412693.3289,1336.9963369963368,,0,-1,1768871412.6933289
1768871412701.1414,1336.263736263736,,0,-1,1768871412.7011414
1768871412708.954,1336.9963369963368,,0,-1,1768871412.708954
1768871412716.7664,1331.8681318681315,,0,-1,1768871412.7167664
1768871412724.5789,1325.2747252747251,,0,-1,1768871412.7245789
1768871412732.3914,1322.3443223443223,,0,-1,1768871412.7323914
1768871412740.204,1318.6813186813183,,0,-1,1768871412.740204
1768871412748.0164,1320.14652014652,,0,-1,1768871412.7480164
1768871412755.8289,1320.8791208791208,,0,-1,1768871412.7558289
1768871412763.6414,1317.216117216117,,0,-1,1768871412.7636414
1768871412771.454,1313.5531135531137,,0,-1,1768871412.771454
1768871412779.2664,1304.0293040293038,,0,-1,1768871412.7792664
1768871412787.0789,1296.7032967032967,,0,-1,1768871412.7870789
1768871412794.8914,1294.5054945054944,,0,-1,1768871412.7948914
1768871412802.704,1290.8424908424909,,0,-1,1768871412.802704
1768871412810.5164,1293.7728937728937,,0,-1,1768871412.8105164
1768871412818.3289,1299.6336996336995,,0,-1,1768871412.8183289
1768871412826.1414,1301.8315018315018,,0,-1,1768871412.8261414
1768871412833.954,1306.9597069597069,,0,-1,1768871412.833954
1768871412841.7664,1315.018315018315,,0,-1,1768871412.8417664
1768871412849.5789,1317.9487179487178,,0,-1,1768871412.8495789
1768871412857.3914,1319.4139194139193,,0,-1,1768871412.8573914
1768871412865.204,1319.4139194139193,,0,-1,1768871412.865204
1768871412873.0164,1316.4835164835165,,0,-1,1768871412.8730164
1768871412880.8289,1312.087912087912,,0,-1,1768871412.8808289
1768871412888.6414,1302.5641025641023,,0,-1,1768871412.8886414
1768871412896.454,1290.10989010989,,0,-1,1768871412.896454
1768871412904.2664,1280.5860805860805,,0,-1,1768871412.9042664
1768871412912.0789,1270.3296703296703,,0,-1,1768871412.9120789
1768871412919.8914,1258.6080586080586,,0,-1,1768871412.9198914
1768871412927.704,1249.084249084249,,0,-1,1768871412.927704
1768871412935.5164,1249.084249084249,,0,-1,1768871412.9355164
1768871412943.3289,1257.142857142857,,0,-1,1768871412.9433289
1768871412951.1414,1268.131868131868,,0,-1,1768871412.9511414
1768871412958.954,1285.7142857142856,,0,-1,1768871412.958954
1768871412966.7664,1306.227106227106,,0,-1,1768871412.9667664
1768871412974.5789,1328.2051282051282,,0,-1,1768871412.9745789
1768871412982.3914,1351.6483516483515,,0,-1,1768871412.9823914
1768871412990.204,1372.8937728937728,,0,-1,1768871412.990204
1768871412998.0164,1392.6739926739926,,0,-1,1768871412.9980164
1768871413005.8289,1411.7216117216117,,0,-1,1768871413.0058289
1768871413013.6414,1432.9670329670328,,0,-1,1768871413.0136414
1768871413021.454,1457.142857142857,,0,-1,1768871413.021454
1768871413029.2664,1483.5164835164835,,0,-1,1768871413.0292664
1768871413037.0789,1506.9597069597069,,0,-1,1768871413.0370789
1768871413044.8914,1523.8095238095236,,0,-1,1768871413.0448914
1768871413052.704,1534.065934065934,,0,-1,1768871413.052704
1768871413060.5164,1541.3919413919414,,0,-1,1768871413.0605164
1768871413068.3289,1545.7875457875457,,0,-1,1768871413.0683289
1768871413076.1414,1545.7875457875457,,0,-1,1768871413.0761414
1768871413083.954,1545.054945054945,,0,-1,1768871413.083954
1768871413091.7664,1543.5897435897434,,0,-1,1768871413.0917664
1768871413099.5789,1539.194139194139,,0,-1,1768871413.0995789
1768871413107.3914,1530.4029304029302,,0,-1,1768871413.1073914
1768871413115.204,1519.4139194139193,,0,-1,1768871413.115204
1768871413123.0164,1506.227106227106,,0,-1,1768871413.1230164
1768871413130.8289,1490.8424908424906,,0,-1,1768871413.1308289
1768871413138.6414,1476.190476190476,,0,-1,1768871413.1386414
1768871413146.454,1460.07326007326,,0,-1,1768871413.146454
1768871413154.2664,1441.0256410256409,,0,-1,1768871413.1542664
1768871413162.0789,1424.9084249084249,,0,-1,1768871413.1620789
1768871413169.8914,1410.2564102564102,,0,-1,1768871413.1698914
1768871413177.704,1400.0,,0,-1,1768871413.177704
1768871413185.5164,1394.139194139194,,0,-1,1768871413.1855164
1768871413193.3289,1386.080586080586,,0,-1,1768871413.1933289
1768871413201.1414,1376.5567765567764,,0,-1,1768871413.2011414
1768871413208.954,1367.032967032967,,0,-1,1768871413.208954
1768871413216.7664,1358.974358974359,,0,-1,1768871413.2167664
1768871413224.5789,1352.3809523809523,,0,-1,1768871413.2245789
1768871413232.3914,1346.5201465201465,,0,-1,1768871413.2323914
1768871413240.204,1338.4615384615383,,0,-1,1768871413.240204
1768871413248.0164,1334.065934065934,,0,-1,1768871413.2480164
1768871413255.8289,1334.065934065934,,0,-1,1768871413.2558289
1768871413263.6414,1336.263736263736,,0,-1,1768871413.2636414
1768871413271.454,1338.4615384615383,,0,-1,1768871413.271454
1768871413279.2664,1341.3919413919414,,0,-1,1768871413.2792664
1768871413287.0789,1346.5201465201465,,0,-1,1768871413.2870789
1768871413294.8914,1350.18315018315,,0,-1,1768871413.2948914
1768871413302.704,1350.9157509157508,,0,-1,1768871413.302704
1768871413310.5164,1350.9157509157508,,0,-1,1768871413.3105164
1768871413318.3289,1349.4505494505493,,0,-1,1768871413.3183289
1768871413326.1414,1344.3223443223442,,0,-1,1768871413.3261414
1768871413333.954,1339.92673992674,,0,-1,1768871413.333954
1768871413341.7664,1329.6703296703297,,1,4,1768871413.3417664
1768871413349.5789,1318.6813186813183,,1,4,1768871413.3495789
1768871413357.3914,1311.3553113553112,,1,4,1768871413.3573914
1768871413365.204,1303.2967032967033,,1,4,1768871413.365204
1768871413373.0164,1298.9010989010987,,1,4,1768871413.3730164
1768871413380.8289,1298.168498168498,,1,4,1768871413.3808289
1768871413388.6414,1294.5054945054944,,1,4,1768871413.3886414
1768871413396.454,1293.040293040293,,1,4,1768871413.396454
1768871413404.2664,1291.5750915750914,,1,4,1768871413.4042664
1768871413412.0789,1290.10989010989,,1,4,1768871413.4120789
1768871413419.8914,1287.179487179487,,1,4,1768871413.4198914
1768871413427.704,1280.5860805860805,,1,4,1768871413.427704
1768871413435.5164,1274.7252747252746,,1,4,1768871413.4355164
1768871413443.3289,1266.6666666666663,,1,4,1768871413.4433289
1768871413451.1414,1262.2710622710622,,1,4,1768871413.4511414
1768871413458.954,1261.5384615384614,,1,4,1768871413.458954
1768871413466.7664,1265.9340659340658,,1,4,1768871413.4667664
1768871413474.5789,1273.260073260073,,1,4,1768871413.4745789
1768871413482.3914,1280.5860805860805,,1,4,1768871413.4823914
1768871413490.204,1279.120879120879,,1,4,1768871413.490204
1768871413498.0164,1280.5860805860805,,1,4,1768871413.4980164
1768871413505.8289,1276.190476190476,,1,4,1768871413.5058289
1768871413513.6414,1273.260073260073,,1,4,1768871413.5136414
1768871413521.454,1267.3992673992673,,1,4,1768871413.521454
1768871413529.2664,1257.142857142857,,1,4,1768871413.5292664
1768871413537.0789,1248.3516483516482,,1,4,1768871413.5370789
1768871413544.8914,1247.6190476190477,,1,4,1768871413.5448914
1768871413552.704,1257.142857142857,,1,4,1768871413.552704
1768871413560.5164,1270.3296703296703,,1,4,1768871413.5605164
1768871413568.3289,1287.179487179487,,1,4,1768871413.5683289
1768871413576.1414,1309.1575091575091,,1,4,1768871413.5761414
1768871413583.954,1337.7289377289376,,1,4,1768871413.583954
1768871413591.7664,1367.7655677655678,,1,4,1768871413.5917664
1768871413599.5789,1391.2087912087911,,1,4,1768871413.5995789
1768871413607.3914,1411.7216117216117,,1,4,1768871413.6073914
1768871413615.204,1427.106227106227,,1,4,1768871413.615204
1768871413623.0164,1438.095238095238,,1,4,1768871413.6230164
1768871413630.8289,1450.5494505494505,,1,4,1768871413.6308289
1768871413638.6414,1463.003663003663,,1,4,1768871413.6386414
1768871413646.454,1473.260073260073,,1,4,1768871413.646454
1768871413654.2664,1477.6556776556777,,1,4,1768871413.6542664
1768871413662.0789,1475.4578754578754,,1,4,1768871413.6620789
1768871413669.8914,1470.3296703296703,,1,4,1768871413.6698914
1768871413677.704,1461.5384615384614,,1,4,1768871413.677704
1768871413685.5164,1453.479853479853,,1,4,1768871413.6855164
1768871413693.3289,1448.3516483516482,,1,4,1768871413.6933289
1768871413701.1414,1440.29304029304,,1,4,1768871413.7011414
1768871413708.954,1431.5018315018317,,1,4,1768871413.708954
1768871413716.7664,1421.9780219780218,,1,4,1768871413.7167664
1768871413724.5789,1412.4542124542124,,1,4,1768871413.7245789
1768871413732.3914,1400.7326007326003,,1,4,1768871413.7323914
1768871413740.204,1391.2087912087911,,1,4,1768871413.740204
1768871413748.0164,1384.6153846153843,,1,4,1768871413.7480164
1768871413755.8289,1380.2197802197802,,1,4,1768871413.7558289
1768871413763.6414,1371.428571428571,,1,4,1768871413.7636414
1768871413771.454,1365.5677655677655,,1,4,1768871413.771454
1768871413779.2664,1361.1721611721612,,1,4,1768871413.7792664
1768871413787.0789,1357.5091575091574,,1,4,1768871413.7870789
1768871413794.8914,1352.3809523809523,,1,4,1768871413.7948914
1768871413802.704,1353.113553113553,,1,4,1768871413.802704
1768871413810.5164,1355.311355311355,,1,4,1768871413.8105164
1768871413818.3289,1355.311355311355,,1,4,1768871413.8183289
1768871413826.1414,1351.6483516483515,,1,4,1768871413.8261414
1768871413833.954,1348.7179487179487,,1,4,1768871413.833954
1768871413841.7664,1347.985347985348,,1,4,1768871413.8417664
1768871413849.5789,1346.5201465201465,,1,4,1768871413.8495789
1768871413857.3914,1343.5897435897434,,1,4,1768871413.8573914
1768871413865.204,1343.5897435897434,,1,4,1768871413.865204
1768871413873.0164,1343.5897435897434,,1,4,1768871413.8730164
1768871413880.8289,1339.194139194139,,1,4,1768871413.8808289
1768871413888.6414,1335.5311355311355,,1,4,1768871413.8886414
1768871413896.454,1333.3333333333333,,1,4,1768871413.896454
1768871413904.2664,1334.7985347985348,,1,4,1768871413.9042664
1768871413912.0789,1329.6703296703297,,1,4,1768871413.9120789
1768871413919.8914,1317.9487179487178,,1,4,1768871413.9198914
1768871413927.704,1308.4249084249084,,1,4,1768871413.927704
1768871413935.5164,1298.9010989010987,,1,4,1768871413.9355164
1768871413943.3289,1290.10989010989,,1,4,1768871413.9433289
1768871413951.1414,1286.4468864468863,,1,4,1768871413.9511414
1768871413958.954,1284.2490842490845,,1,4,1768871413.958954
1768871413966.7664,1281.3186813186812,,1,4,1768871413.9667664
1768871413974.5789,1278.3882783882782,,1,4,1768871413.9745789
1768871413982.3914,1277.6556776556777,,1,4,1768871413.9823914
1768871413990.204,1282.7838827838827,,1,4,1768871413.990204
1768871413998.0164,1284.2490842490845,,1,4,1768871413.9980164
1768871414005.8289,1282.051282051282,,1,4,1768871414.0058289
1768871414013.6414,1280.5860805860805,,1,4,1768871414.0136414
1768871414021.454,1279.120879120879,,1,4,1768871414.021454
1768871414029.2664,1273.992673992674,,1,4,1768871414.0292664
1768871414037.0789,1273.992673992674,,1,4,1768871414.0370789
1768871414044.8914,1273.992673992674,,1,4,1768871414.0448914
1768871414052.704,1268.8644688644688,,1,4,1768871414.052704
1768871414060.5164,1271.062271062271,,1,4,1768871414.0605164
1768871414068.3289,1266.6666666666663,,1,4,1768871414.0683289
1768871414076.1414,1264.4688644688645,,1,4,1768871414.0761414
1768871414083.954,1259.3406593406592,,1,4,1768871414.083954
1768871414091.7664,1251.2820512820513,,1,4,1768871414.0917664
1768871414099.5789,1243.956043956044,,1,4,1768871414.0995789
1768871414107.3914,1241.0256410256409,,1,4,1768871414.1073914
1768871414115.204,1236.6300366300366,,1,4,1768871414.115204
1768871414123.0164,1232.2344322344322,,1,4,1768871414.1230164
1768871414130.8289,1231.5018315018317,,1,4,1768871414.1308289
1768871414138.6414,1229.3040293040292,,1,4,1768871414.1386414
1768871414146.454,1231.5018315018317,,1,4,1768871414.146454
1768871414154.2664,1235.164835164835,,1,4,1768871414.1542664
1768871414162.0789,1237.362637362637,,1,4,1768871414.1620789
1768871414169.8914,1243.2234432234432,,1,4,1768871414.1698914
1768871414177.704,1254.212454212454,,1,4,1768871414.177704
1768871414185.5164,1268.131868131868,,1,4,1768871414.1855164
1768871414193.3289,1291.5750915750914,,1,4,1768871414.1933289
1768871414201.1414,1318.6813186813183,,1,4,1768871414.2011414
1768871414208.954,1346.5201465201465,,1,4,1768871414.208954
1768871414216.7664,1375.8241758241757,,1,4,1768871414.2167664
1768871414224.5789,1395.6043956043954,,1,4,1768871414.2245789
1768871414232.3914,1409.5238095238094,,1,4,1768871414.2323914
1768871414240.204,1425.6410256410256,,1,4,1768871414.240204
1768871414248.0164,1435.164835164835,,1,4,1768871414.2480164
1768871414255.8289,1448.3516483516482,,1,4,1768871414.2558289
1768871414263.6414,1455.6776556776556,,1,4,1768871414.2636414
1768871414271.454,1461.5384615384614,,1,4,1768871414.271454
1768871414279.2664,1463.7362637362637,,1,4,1768871414.2792664
1768871414287.0789,1463.003663003663,,1,4,1768871414.2870789
1768871414294.8914,1457.142857142857,,1,4,1768871414.2948914
1768871414302.704,1449.8168498168498,,1,4,1768871414.302704
1768871414310.5164,1441.0256410256409,,1,4,1768871414.3105164
1768871414318.3289,1424.9084249084249,,1,4,1768871414.3183289
1768871414326.1414,1410.2564102564102,,1,4,1768871414.3261414
1768871414333.954,1388.278388278388,,1,4,1768871414.333954
1768871414341.7664,1369.9633699633698,,1,4,1768871414.3417664
1768871414349.5789,1354.5787545787546,,1,4,1768871414.3495789
1768871414357.3914,1344.3223443223442,,1,4,1768871414.3573914
1768871414365.204,1334.7985347985348,,1,4,1768871414.365204
1768871414373.0164,1326.739926739927,,1,4,1768871414.3730164
1768871414380.8289,1321.6117216117216,,1,4,1768871414.3808289
1768871414388.6414,1317.9487179487178,,1,4,1768871414.3886414
1768871414396.454,1320.8791208791208,,1,4,1768871414.396454
1768871414404.2664,1318.6813186813183,,1,4,1768871414.4042664
1768871414412.0789,1322.3443223443223,,1,4,1768871414.4120789
1768871414419.8914,1321.6117216117216,,1,4,1768871414.4198914
1768871414427.704,1325.2747252747251,,1,4,1768871414.427704
1768871414435.5164,1327.4725274725274,,1,4,1768871414.4355164
1768871414443.3289,1333.3333333333333,,1,4,1768871414.4433289
1768871414451.1414,1336.263736263736,,1,4,1768871414.4511414
1768871414458.954,1339.194139194139,,1,4,1768871414.458954
1768871414466.7664,1340.6593406593406,,1,4,1768871414.4667664
1768871414474.5789,1336.9963369963368,,1,4,1768871414.4745789
1768871414482.3914,1331.8681318681315,,1,4,1768871414.4823914
1768871414490.204,1320.8791208791208,,1,4,1768871414.490204
1768871414498.0164,1311.3553113553112,,1,4,1768871414.4980164
1768871414505.8289,1308.4249084249084,,1,4,1768871414.5058289
1768871414513.6414,1299.6336996336995,,1,4,1768871414.5136414
1768871414521.454,1293.040293040293,,1,4,1768871414.521454
1768871414529.2664,1291.5750915750914,,1,4,1768871414.5292664
1768871414537.0789,1287.9120879120878,,1,4,1768871414.5370789
1768871414544.8914,1282.7838827838827,,1,4,1768871414.5448914
1768871414552.704,1279.120879120879,,1,4,1768871414.552704
1768871414560.5164,1271.7948717948716,,1,4,1768871414.5605164
1768871414568.3289,1268.8644688644688,,1,4,1768871414.5683289
1768871414576.1414,1268.8644688644688,,1,4,1768871414.5761414
1768871414583.954,1271.062271062271,,1,4,1768871414.583954
1768871414591.7664,1272.5274725274724,,1,4,1768871414.5917664
1768871414599.5789,1268.8644688644688,,1,4,1768871414.5995789
1768871414607.3914,1270.3296703296703,,1,4,1768871414.6073914
1768871414615.204,1265.9340659340658,,1,4,1768871414.615204
1768871414623.0164,1270.3296703296703,,1,4,1768871414.6230164
1768871414630.8289,1272.5274725274724,,1,4,1768871414.6308289
1768871414638.6414,1274.7252747252746,,1,4,1768871414.6386414
1768871414646.454,1276.923076923077,,1,4,1768871414.646454
1768871414654.2664,1273.992673992674,,1,4,1768871414.6542664
1768871414662.0789,1273.992673992674,,1,4,1768871414.6620789
1768871414669.8914,1271.062271062271,,1,4,1768871414.6698914
1768871414677.704,1268.8644688644688,,1,4,1768871414.677704
1768871414685.5164,1273.992673992674,,1,4,1768871414.6855164
1768871414693.3289,1272.5274725274724,,1,4,1768871414.6933289
1768871414701.1414,1264.4688644688645,,1,4,1768871414.7011414
1768871414708.954,1258.6080586080586,,1,4,1768871414.708954
1768871414716.7664,1254.212454212454,,1,4,1768871414.7167664
1768871414724.5789,1243.2234432234432,,1,4,1768871414.7245789
1768871414732.3914,1232.2344322344322,,1,4,1768871414.7323914
1768871414740.204,1224.175824175824,,1,4,1768871414.740204
1768871414748.0164,1217.5824175824175,,1,4,1768871414.7480164
1768871414755.8289,1212.4542124542124,,1,4,1768871414.7558289
1768871414763.6414,1216.117216117216,,1,4,1768871414.7636414
1768871414771.454,1221.9780219780218,,1,4,1768871414.771454
1768871414779.2664,1230.03663003663,,1,4,1768871414.7792664
1768871414787.0789,1245.4212454212454,,1,4,1768871414.7870789
1768871414794.8914,1266.6666666666663,,1,4,1768871414.7948914
1768871414802.704,1290.8424908424909,,1,4,1768871414.802704
1768871414810.5164,1317.216117216117,,1,4,1768871414.8105164
1768871414818.3289,1342.124542124542,,1,4,1768871414.8183289
1768871414826.1414,1365.5677655677655,,1,4,1768871414.8261414
1768871414833.954,1387.5457875457876,,1,4,1768871414.833954
1768871414841.7664,1403.6630036630036,,1,4,1768871414.8417664
1768871414849.5789,1414.6520146520145,,1,4,1768871414.8495789
1768871414857.3914,1421.9780219780218,,1,4,1768871414.8573914
1768871414865.204,1429.3040293040292,,1,4,1768871414.865204
1768871414873.0164,1435.8974358974358,,1,4,1768871414.8730164
1768871414880.8289,1443.2234432234432,,0,-1,1768871414.8808289
1768871414888.6414,1451.2820512820513,,0,-1,1768871414.8886414
1768871414896.454,1454.212454212454,,0,-1,1768871414.896454
1768871414904.2664,1451.2820512820513,,0,-1,1768871414.9042664
1768871414912.0789,1446.153846153846,,0,-1,1768871414.9120789
1768871414919.8914,1435.8974358974358,,0,-1,1768871414.9198914
1768871414927.704,1427.8388278388277,,0,-1,1768871414.927704
1768871414935.5164,1424.175824175824,,0,-1,1768871414.9355164
1768871414943.3289,1419.047619047619,,0,-1,1768871414.9433289
1768871414951.1414,1409.5238095238094,,0,-1,1768871414.9511414
1768871414958.954,1397.069597069597,,0,-1,1768871414.958954
1768871414966.7664,1383.150183150183,,0,-1,1768871414.9667664
1768871414974.5789,1369.9633699633698,,0,-1,1768871414.9745789
1768871414982.3914,1358.241758241758,,0,-1,1768871414.9823914
1768871414990.204,1348.7179487179487,,0,-1,1768871414.990204
1768871414998.0164,1341.3919413919414,,0,-1,1768871414.9980164
1768871415005.8289,1334.7985347985348,,0,-1,1768871415.0058289
1768871415013.6414,1329.6703296703297,,0,-1,1768871415.0136414
1768871415021.454,1326.739926739927,,0,-1,1768871415.021454
1768871415029.2664,1326.007326007326,,0,-1,1768871415.0292664
1768871415037.0789,1328.937728937729,,0,-1,1768871415.0370789
1768871415044.8914,1334.7985347985348,,0,-1,1768871415.0448914
1768871415052.704,1341.3919413919414,,0,-1,1768871415.052704
1768871415060.5164,1345.054945054945,,0,-1,1768871415.0605164
1768871415068.3289,1345.7875457875457,,0,-1,1768871415.0683289
1768871415076.1414,1347.2527472527472,,0,-1,1768871415.0761414
1768871415083.954,1347.2527472527472,,0,-1,1768871415.083954
1768871415091.7664,1342.857142857143,,0,-1,1768871415.0917664
1768871415099.5789,1338.4615384615383,,0,-1,1768871415.0995789
1768871415107.3914,1338.4615384615383,,0,-1,1768871415.1073914
1768871415115.204,1334.065934065934,,0,-1,1768871415.115204
1768871415123.0164,1328.2051282051282,,0,-1,1768871415.1230164
1768871415130.8289,1324.5421245421244,,0,-1,1768871415.1308289
1768871415138.6414,1321.6117216117216,,0,-1,1768871415.1386414
1768871415146.454,1317.9487179487178,,0,-1,1768871415.146454
1768871415154.2664,1315.018315018315,,0,-1,1768871415.1542664
1768871415162.0789,1305.4945054945051,,0,-1,1768871415.1620789
1768871415169.8914,1295.2380952380952,,0,-1,1768871415.1698914
1768871415177.704,1287.179487179487,,0,-1,1768871415.177704
1768871415185.5164,1284.2490842490845,,0,-1,1768871415.1855164
1768871415193.3289,1285.7142857142856,,0,-1,1768871415.1933289
1768871415201.1414,1288.6446886446886,,0,-1,1768871415.2011414
1768871415208.954,1289.3772893772891,,0,-1,1768871415.208954
1768871415216.7664,1287.9120879120878,,0,-1,1768871415.2167664
1768871415224.5789,1284.9816849816848,,0,-1,1768871415.2245789
1768871415232.3914,1282.7838827838827,,0,-1,1768871415.2323914
1768871415240.204,1280.5860805860805,,0,-1,1768871415.240204
1768871415248.0164,1276.190476190476,,0,-1,1768871415.2480164
1768871415255.8289,1271.062271062271,,0,-1,1768871415.2558289
1768871415263.6414,1268.8644688644688,,0,-1,1768871415.2636414
1768871415271.454,1269.5970695970695,,0,-1,1768871415.271454
1768871415279.2664,1271.7948717948716,,0,-1,1768871415.2792664
1768871415287.0789,1272.5274725274724,,0,-1,1768871415.2870789
1768871415294.8914,1274.7252747252746,,0,-1,1768871415.2948914
1768871415302.704,1277.6556776556777,,0,-1,1768871415.302704
1768871415310.5164,1279.8534798534797,,0,-1,1768871415.3105164
1768871415318.3289,1279.120879120879,,0,-1,1768871415.3183289
1768871415326.1414,1275.4578754578754,,0,-1,1768871415.3261414
1768871415333.954,1272.5274725274724,,0,-1,1768871415.333954
1768871415341.7664,1269.5970695970695,,0,-1,1768871415.3417664
1768871415349.5789,1263.7362637362637,,0,-1,1768871415.3495789
1768871415357.3914,1257.142857142857,,0,-1,1768871415.3573914
1768871415365.204,1251.2820512820513,,0,-1,1768871415.365204
1768871415373.0164,1247.6190476190477,,0,-1,1768871415.3730164
1768871415380.8289,1244.688644688645,,0,-1,1768871415.3808289
1768871415388.6414,1241.0256410256409,,0,-1,1768871415.3886414
1768871415396.454,1242.4908424908424,,0,-1,1768871415.396454
1768871415404.2664,1249.084249084249,,0,-1,1768871415.4042664
1768871415412.0789,1264.4688644688645,,0,-1,1768871415.4120789
1768871415419.8914,1285.7142857142856,,0,-1,1768871415.4198914
1768871415427.704,1311.3553113553112,,0,-1,1768871415.427704
1768871415435.5164,1342.857142857143,,0,-1,1768871415.4355164
1768871415443.3289,1374.3589743589744,,0,-1,1768871415.4433289
1768871415451.1414,1403.6630036630036,,0,-1,1768871415.4511414
1768871415458.954,1425.6410256410256,,0,-1,1768871415.458954
1768871415466.7664,1441.7582417582416,,0,-1,1768871415.4667664
1768871415474.5789,1452.014652014652,,0,-1,1768871415.4745789
1768871415482.3914,1460.07326007326,,0,-1,1768871415.4823914
1768871415490.204,1467.3992673992673,,0,-1,1768871415.490204
1768871415498.0164,1472.5274725274724,,0,-1,1768871415.4980164
1768871415505.8289,1474.7252747252746,,0,-1,1768871415.5058289
1768871415513.6414,1474.7252747252746,,0,-1,1768871415.5136414
1768871415521.454,1472.5274725274724,,0,-1,1768871415.521454
1768871415529.2664,1468.8644688644688,,0,-1,1768871415.5292664
1768871415537.0789,1463.7362637362637,,0,-1,1768871415.5370789
1768871415544.8914,1458.6080586080584,,0,-1,1768871415.5448914
1768871415552.704,1454.212454212454,,0,-1,1768871415.552704
1768871415560.5164,1447.6190476190477,,0,-1,1768871415.5605164
1768871415568.3289,1438.095238095238,,0,-1,1768871415.5683289
1768871415576.1414,1430.7692307692307,,0,-1,1768871415.5761414
1768871415583.954,1424.175824175824,,0,-1,1768871415.583954
1768871415591.7664,1419.047619047619,,0,-1,1768871415.5917664
1768871415599.5789,1410.989010989011,,0,-1,1768871415.5995789
1768871415607.3914,1399.2673992673992,,0,-1,1768871415.6073914
1768871415615.204,1391.2087912087911,,0,-1,1768871415.615204
1768871415623.0164,1381.6849816849815,,0,-1,1768871415.6230164
1768871415630.8289,1373.6263736263736,,0,-1,1768871415.6308289
1768871415638.6414,1364.8351648351647,,0,-1,1768871415.6386414
1768871415646.454,1358.974358974359,,0,-1,1768871415.646454
1768871415654.2664,1358.974358974359,,0,-1,1768871415.6542664
1768871415662.0789,1361.904761904762,,0,-1,1768871415.6620789
1768871415669.8914,1361.1721611721612,,0,-1,1768871415.6698914
1768871415677.704,1359.7069597069597,,0,-1,1768871415.677704
1768871415685.5164,1356.7765567765566,,0,-1,1768871415.6855164
1768871415693.3289,1350.18315018315,,0,-1,1768871415.6933289
1768871415701.1414,1346.5201465201465,,0,-1,1768871415.7011414
1768871415708.954,1347.2527472527472,,0,-1,1768871415.708954
1768871415716.7664,1350.18315018315,,0,-1,1768871415.7167664
1768871415724.5789,1353.113553113553,,0,-1,1768871415.7245789
1768871415732.3914,1356.043956043956,,0,-1,1768871415.7323914
1768871415740.204,1352.3809523809523,,0,-1,1768871415.740204
1768871415748.0164,1344.3223443223442,,0,-1,1768871415.7480164
1768871415755.8289,1335.5311355311355,,0,-1,1768871415.7558289
1768871415763.6414,1328.2051282051282,,0,-1,1768871415.7636414
1768871415771.454,1321.6117216117216,,0,-1,1768871415.771454
1768871415779.2664,1317.9487179487178,,0,-1,1768871415.7792664
1768871415787.0789,1314.2857142857142,,0,-1,1768871415.7870789
1768871415794.8914,1315.7509157509155,,0,-1,1768871415.7948914
1768871415802.704,1318.6813186813183,,0,-1,1768871415.802704
1768871415810.5164,1319.4139194139193,,0,-1,1768871415.8105164
1768871415818.3289,1320.14652014652,,0,-1,1768871415.8183289
1768871415826.1414,1317.9487179487178,,0,-1,1768871415.8261414
1768871415833.954,1317.216117216117,,0,-1,1768871415.833954
1768871415841.7664,1312.087912087912,,0,-1,1768871415.8417664
1768871415849.5789,1301.8315018315018,,0,-1,1768871415.8495789
1768871415857.3914,1293.7728937728937,,0,-1,1768871415.8573914
1768871415865.204,1290.10989010989,,0,-1,1768871415.865204
1768871415873.0164,1284.9816849816848,,0,-1,1768871415.8730164
1768871415880.8289,1287.9120879120878,,0,-1,1768871415.8808289
1768871415888.6414,1287.179487179487,,0,-1,1768871415.8886414
1768871415896.454,1287.179487179487,,0,-1,1768871415.896454
1768871415904.2664,1284.2490842490845,,0,-1,1768871415.9042664
1768871415912.0789,1283.5164835164835,,0,-1,1768871415.9120789
1768871415919.8914,1284.2490842490845,,0,-1,1768871415.9198914
1768871415927.704,1286.4468864468863,,0,-1,1768871415.927704
1768871415935.5164,1287.179487179487,,0,-1,1768871415.9355164
1768871415943.3289,1286.4468864468863,,0,-1,1768871415.9433289
1768871415951.1414,1286.4468864468863,,0,-1,1768871415.9511414
1768871415958.954,1287.9120879120878,,0,-1,1768871415.958954
1768871415966.7664,1284.9816849816848,,0,-1,1768871415.9667664
1768871415974.5789,1281.3186813186812,,0,-1,1768871415.9745789
1768871415982.3914,1273.992673992674,,0,-1,1768871415.9823914
1768871415990.204,1265.2014652014652,,0,-1,1768871415.990204
1768871415998.0164,1259.3406593406592,,0,-1,1768871415.9980164
1768871416005.8289,1259.3406593406592,,0,-1,1768871416.0058289
1768871416013.6414,1262.2710622710622,,0,-1,1768871416.0136414
1768871416021.454,1268.8644688644688,,0,-1,1768871416.021454
1768871416029.2664,1271.7948717948716,,0,-1,1768871416.0292664
1768871416037.0789,1278.3882783882782,,0,-1,1768871416.0370789
1768871416044.8914,1286.4468864468863,,0,-1,1768871416.0448914
1768871416052.704,1293.7728937728937,,0,-1,1768871416.052704
1768871416060.5164,1302.5641025641023,,0,-1,1768871416.0605164
1768871416068.3289,1315.7509157509155,,0,-1,1768871416.0683289
1768871416076.1414,1334.065934065934,,0,-1,1768871416.0761414
1768871416083.954,1354.5787545787546,,0,-1,1768871416.083954
1768871416091.7664,1372.161172161172,,0,-1,1768871416.0917664
1768871416099.5789,1390.4761904761904,,0,-1,1768871416.0995789
1768871416107.3914,1405.128205128205,,0,-1,1768871416.1073914
1768871416115.204,1416.8498168498168,,0,-1,1768871416.115204
1768871416123.0164,1427.106227106227,,0,-1,1768871416.1230164
1768871416130.8289,1435.8974358974358,,0,-1,1768871416.1308289
1768871416138.6414,1445.4212454212454,,0,-1,1768871416.1386414
1768871416146.454,1453.479853479853,,0,-1,1768871416.146454
1768871416154.2664,1462.2710622710622,,0,-1,1768871416.1542664
1768871416162.0789,1470.3296703296703,,0,-1,1768871416.1620789
1768871416169.8914,1475.4578754578754,,0,-1,1768871416.1698914
1768871416177.704,1479.120879120879,,0,-1,1768871416.177704
1768871416185.5164,1475.4578754578754,,0,-1,1768871416.1855164
1768871416193.3289,1470.3296703296703,,0,-1,1768871416.1933289
1768871416201.1414,1466.6666666666663,,0,-1,1768871416.2011414
1768871416208.954,1466.6666666666663,,0,-1,1768871416.208954
1768871416216.7664,1463.7362637362637,,0,-1,1768871416.2167664
1768871416224.5789,1455.6776556776556,,0,-1,1768871416.2245789
1768871416232.3914,1442.4908424908424,,0,-1,1768871416.2323914
1768871416240.204,1428.5714285714284,,0,-1,1768871416.240204
1768871416248.0164,1416.8498168498168,,0,-1,1768871416.2480164
1768871416255.8289,1408.058608058608,,0,-1,1768871416.2558289
1768871416263.6414,1394.139194139194,,0,-1,1768871416.2636414
1768871416271.454,1380.952380952381,,0,-1,1768871416.271454
1768871416279.2664,1370.6959706959706,,0,-1,1768871416.2792664
1768871416287.0789,1367.7655677655678,,0,-1,1768871416.2870789
1768871416294.8914,1369.9633699633698,,0,-1,1768871416.2948914
1768871416302.704,1367.7655677655678,,0,-1,1768871416.302704
1768871416310.5164,1367.032967032967,,0,-1,1768871416.3105164
1768871416318.3289,1364.8351648351647,,0,-1,1768871416.3183289
1768871416326.1414,1357.5091575091574,,0,-1,1768871416.3261414
1768871416333.954,1347.985347985348,,0,-1,1768871416.333954
1768871416341.7664,1342.124542124542,,0,-1,1768871416.3417664
1768871416349.5789,1338.4615384615383,,0,-1,1768871416.3495789
1768871416357.3914,1338.4615384615383,,0,-1,1768871416.3573914
1768871416365.204,1339.194139194139,,1,5,1768871416.365204
1768871416373.0164,1336.9963369963368,,1,5,1768871416.3730164
1768871416380.8289,1337.7289377289376,,1,5,1768871416.3808289
1768871416388.6414,1341.3919413919414,,1,5,1768871416.3886414
1768871416396.454,1345.054945054945,,1,5,1768871416.396454
1768871416404.2664,1345.054945054945,,1,5,1768871416.4042664
1768871416412.0789,1347.2527472527472,,1,5,1768871416.4120789
1768871416419.8914,1349.4505494505493,,1,5,1768871416.4198914
1768871416427.704,1348.7179487179487,,1,5,1768871416.427704
1768871416435.5164,1347.985347985348,,1,5,1768871416.4355164
1768871416443.3289,1350.9157509157508,,1,5,1768871416.4433289
1768871416451.1414,1348.7179487179487,,1,5,1768871416.4511414
1768871416458.954,1347.985347985348,,1,5,1768871416.458954
1768871416466.7664,1345.7875457875457,,1,5,1768871416.4667664
1768871416474.5789,1337.7289377289376,,1,5,1768871416.4745789
1768871416482.3914,1332.6007326007325,,1,5,1768871416.4823914
1768871416490.204,1323.8095238095236,,1,5,1768871416.490204
1768871416498.0164,1315.018315018315,,1,5,1768871416.4980164
1768871416505.8289,1308.4249084249084,,1,5,1768871416.5058289
1768871416513.6414,1301.098901098901,,1,5,1768871416.5136414
1768871416521.454,1298.168498168498,,1,5,1768871416.521454
1768871416529.2664,1293.040293040293,,1,5,1768871416.5292664
1768871416537.0789,1289.3772893772891,,1,5,1768871416.5370789
1768871416544.8914,1290.10989010989,,1,5,1768871416.5448914
1768871416552.704,1286.4468864468863,,1,5,1768871416.552704
1768871416560.5164,1279.8534798534797,,1,5,1768871416.5605164
1768871416568.3289,1277.6556776556777,,1,5,1768871416.5683289
1768871416576.1414,1270.3296703296703,,1,5,1768871416.5761414
1768871416583.954,1267.3992673992673,,1,5,1768871416.583954
1768871416591.7664,1268.8644688644688,,1,5,1768871416.5917664
1768871416599.5789,1265.9340659340658,,1,5,1768871416.5995789
1768871416607.3914,1266.6666666666663,,1,5,1768871416.6073914
1768871416615.204,1260.805860805861,,1,5,1768871416.615204
1768871416623.0164,1260.805860805861,,1,5,1768871416.6230164
1768871416630.8289,1260.07326007326,,1,5,1768871416.6308289
1768871416638.6414,1259.3406593406592,,1,5,1768871416.6386414
1768871416646.454,1262.2710622710622,,1,5,1768871416.646454
1768871416654.2664,1260.07326007326,,1,5,1768871416.6542664
1768871416662.0789,1259.3406593406592,,1,5,1768871416.6620789
1768871416669.8914,1255.6776556776556,,1,5,1768871416.6698914
1768871416677.704,1254.9450549450548,,1,5,1768871416.677704
1768871416685.5164,1254.212454212454,,1,5,1768871416.6855164
1768871416693.3289,1249.084249084249,,1,5,1768871416.6933289
1768871416701.1414,1245.4212454212454,,1,5,1768871416.7011414
1768871416708.954,1244.688644688645,,1,5,1768871416.708954
1768871416716.7664,1240.29304029304,,1,5,1768871416.7167664
1768871416724.5789,1241.0256410256409,,1,5,1768871416.7245789
1768871416732.3914,1240.29304029304,,1,5,1768871416.7323914
1768871416740.204,1240.29304029304,,1,5,1768871416.740204
1768871416748.0164,1246.153846153846,,1,5,1768871416.7480164
1768871416755.8289,1250.5494505494505,,1,5,1768871416.7558289
1768871416763.6414,1260.07326007326,,1,5,1768871416.7636414
1768871416771.454,1266.6666666666663,,1,5,1768871416.771454
1768871416779.2664,1284.9816849816848,,1,5,1768871416.7792664
1768871416787.0789,1305.4945054945051,,1,5,1768871416.7870789
1768871416794.8914,1330.4029304029302,,1,5,1768871416.7948914
1768871416802.704,1349.4505494505493,,1,5,1768871416.802704
1768871416810.5164,1370.6959706959706,,1,5,1768871416.8105164
1768871416818.3289,1389.0109890109889,,1,5,1768871416.8183289
1768871416826.1414,1400.7326007326003,,1,5,1768871416.8261414
1768871416833.954,1412.4542124542124,,1,5,1768871416.833954
1768871416841.7664,1422.7106227106226,,1,5,1768871416.8417664
1768871416849.5789,1435.8974358974358,,1,5,1768871416.8495789
1768871416857.3914,1443.956043956044,,1,5,1768871416.8573914
1768871416865.204,1453.479853479853,,1,5,1768871416.865204
1768871416873.0164,1454.212454212454,,1,5,1768871416.8730164
1768871416880.8289,1456.4102564102564,,1,5,1768871416.8808289
1768871416888.6414,1450.5494505494505,,1,5,1768871416.8886414
1768871416896.454,1445.4212454212454,,1,5,1768871416.896454
1768871416904.2664,1437.362637362637,,1,5,1768871416.9042664
1768871416912.0789,1429.3040293040292,,1,5,1768871416.9120789
1768871416919.8914,1422.7106227106226,,1,5,1768871416.9198914
1768871416927.704,1416.8498168498168,,1,5,1768871416.927704
1768871416935.5164,1404.3956043956043,,1,5,1768871416.9355164
1768871416943.3289,1397.8021978021975,,1,5,1768871416.9433289
1768871416951.1414,1386.080586080586,,1,5,1768871416.9511414
1768871416958.954,1378.7545787545787,,1,5,1768871416.958954
1768871416966.7664,1372.8937728937728,,1,5,1768871416.9667664
1768871416974.5789,1373.6263736263736,,1,5,1768871416.9745789
1768871416982.3914,1371.428571428571,,1,5,1768871416.9823914
1768871416990.204,1370.6959706959706,,1,5,1768871416.990204
1768871416998.0164,1361.904761904762,,1,5,1768871416.9980164
1768871417005.8289,1356.7765567765566,,1,5,1768871417.0058289
1768871417013.6414,1347.985347985348,,1,5,1768871417.0136414
1768871417021.454,1339.194139194139,,1,5,1768871417.021454
1768871417029.2664,1331.8681318681315,,1,5,1768871417.0292664
1768871417037.0789,1327.4725274725274,,1,5,1768871417.0370789
1768871417044.8914,1324.5421245421244,,1,5,1768871417.0448914
1768871417052.704,1328.937728937729,,1,5,1768871417.052704
1768871417060.5164,1329.6703296703297,,1,5,1768871417.0605164
1768871417068.3289,1333.3333333333333,,1,5,1768871417.0683289
1768871417076.1414,1333.3333333333333,,1,5,1768871417.0761414
1768871417083.954,1328.937728937729,,1,5,1768871417.083954
1768871417091.7664,1323.8095238095236,,1,5,1768871417.0917664
1768871417099.5789,1314.2857142857142,,1,5,1768871417.0995789
1768871417107.3914,1312.8205128205127,,1,5,1768871417.1073914
1768871417115.204,1311.3553113553112,,1,5,1768871417.115204
1768871417123.0164,1310.6227106227104,,1,5,1768871417.1230164
1768871417130.8289,1316.4835164835165,,1,5,1768871417.1308289
1768871417138.6414,1319.4139194139193,,1,5,1768871417.1386414
1768871417146.454,1326.007326007326,,1,5,1768871417.146454
1768871417154.2664,1333.3333333333333,,1,5,1768871417.1542664
1768871417162.0789,1334.7985347985348,,1,5,1768871417.1620789
1768871417169.8914,1332.6007326007325,,1,5,1768871417.1698914
1768871417177.704,1327.4725274725274,,1,5,1768871417.177704
1768871417185.5164,1321.6117216117216,,1,5,1768871417.1855164
1768871417193.3289,1311.3553113553112,,1,5,1768871417.1933289
1768871417201.1414,1301.098901098901,,1,5,1768871417.2011414
1768871417208.954,1295.970695970696,,1,5,1768871417.208954
1768871417216.7664,1293.7728937728937,,1,5,1768871417.2167664
1768871417224.5789,1291.5750915750914,,1,5,1768871417.2245789
1768871417232.3914,1294.5054945054944,,1,5,1768871417.2323914
1768871417240.204,1296.7032967032967,,1,5,1768871417.240204
1768871417248.0164,1296.7032967032967,,1,5,1768871417.2480164
1768871417255.8289,1299.6336996336995,,1,5,1768871417.2558289
1768871417263.6414,1300.3663003663005,,1,5,1768871417.2636414
1768871417271.454,1301.098901098901,,1,5,1768871417.271454
1768871417279.2664,1301.098901098901,,1,5,1768871417.2792664
1768871417287.0789,1300.3663003663005,,1,5,1768871417.2870789
1768871417294.8914,1299.6336996336995,,1,5,1768871417.2948914
1768871417302.704,1293.7728937728937,,1,5,1768871417.302704
1768871417310.5164,1287.179487179487,,1,5,1768871417.3105164
1768871417318.3289,1285.7142857142856,,1,5,1768871417.3183289
1768871417326.1414,1288.6446886446886,,1,5,1768871417.3261414
1768871417333.954,1288.6446886446886,,1,5,1768871417.333954
1768871417341.7664,1283.5164835164835,,1,5,1768871417.3417664
1768871417349.5789,1282.051282051282,,1,5,1768871417.3495789
1768871417357.3914,1275.4578754578754,,1,5,1768871417.3573914
1768871417365.204,1264.4688644688645,,1,5,1768871417.365204
1768871417373.0164,1254.9450549450548,,1,5,1768871417.3730164
1768871417380.8289,1249.8168498168498,,1,5,1768871417.3808289
1768871417388.6414,1243.956043956044,,1,5,1768871417.3886414
1768871417396.454,1237.362637362637,,1,5,1768871417.396454
1768871417404.2664,1233.6996336996335,,1,5,1768871417.4042664
1768871417412.0789,1235.164835164835,,1,5,1768871417.4120789
1768871417419.8914,1235.8974358974358,,1,5,1768871417.4198914
1768871417427.704,1238.095238095238,,1,5,1768871417.427704
1768871417435.5164,1241.7582417582416,,1,5,1768871417.4355164
1768871417443.3289,1249.8168498168498,,1,5,1768871417.4433289
1768871417451.1414,1261.5384615384614,,1,5,1768871417.4511414
1768871417458.954,1276.190476190476,,1,5,1768871417.458954
1768871417466.7664,1292.3076923076922,,1,5,1768871417.4667664
1768871417474.5789,1314.2857142857142,,1,5,1768871417.4745789
1768871417482.3914,1334.7985347985348,,1,5,1768871417.4823914
1768871417490.204,1356.7765567765566,,1,5,1768871417.490204
1768871417498.0164,1378.7545787545787,,1,5,1768871417.4980164
1768871417505.8289,1399.2673992673992,,1,5,1768871417.5058289
1768871417513.6414,1416.117216117216,,1,5,1768871417.5136414
1768871417521.454,1428.5714285714284,,1,5,1768871417.521454
1768871417529.2664,1436.6300366300366,,1,5,1768871417.5292664
1768871417537.0789,1443.956043956044,,1,5,1768871417.5370789
1768871417544.8914,1449.8168498168498,,1,5,1768871417.5448914
1768871417552.704,1452.014652014652,,1,5,1768871417.552704
1768871417560.5164,1451.2820512820513,,1,5,1768871417.5605164
1768871417568.3289,1446.8864468864467,,1,5,1768871417.5683289
1768871417576.1414,1438.8278388278388,,1,5,1768871417.5761414
1768871417583.954,1430.7692307692307,,1,5,1768871417.583954
1768871417591.7664,1423.4432234432234,,1,5,1768871417.5917664
1768871417599.5789,1414.6520146520145,,1,5,1768871417.5995789
1768871417607.3914,1404.3956043956043,,1,5,1768871417.6073914
1768871417615.204,1397.8021978021975,,1,5,1768871417.615204
1768871417623.0164,1393.4065934065934,,1,5,1768871417.6230164
1768871417630.8289,1389.0109890109889,,1,5,1768871417.6308289
1768871417638.6414,1383.8827838827838,,1,5,1768871417.6386414
1768871417646.454,1382.4175824175825,,1,5,1768871417.646454
1768871417654.2664,1375.8241758241757,,1,5,1768871417.6542664
1768871417662.0789,1369.230769230769,,1,5,1768871417.6620789
1768871417669.8914,1361.904761904762,,1,5,1768871417.6698914
1768871417677.704,1355.311355311355,,1,5,1768871417.677704
1768871417685.5164,1348.7179487179487,,1,5,1768871417.6855164
1768871417693.3289,1339.92673992674,,1,5,1768871417.6933289
1768871417701.1414,1333.3333333333333,,1,5,1768871417.7011414
1768871417708.954,1332.6007326007325,,1,5,1768871417.708954
1768871417716.7664,1335.5311355311355,,1,5,1768871417.7167664
1768871417724.5789,1339.194139194139,,1,5,1768871417.7245789
1768871417732.3914,1342.857142857143,,1,5,1768871417.7323914
1768871417740.204,1345.054945054945,,1,5,1768871417.740204
1768871417748.0164,1345.054945054945,,1,5,1768871417.7480164
1768871417755.8289,1347.2527472527472,,1,5,1768871417.7558289
1768871417763.6414,1349.4505494505493,,1,5,1768871417.7636414
1768871417771.454,1350.9157509157508,,1,5,1768871417.771454
1768871417779.2664,1350.18315018315,,1,5,1768871417.7792664
1768871417787.0789,1348.7179487179487,,1,5,1768871417.7870789
1768871417794.8914,1344.3223443223442,,1,5,1768871417.7948914
1768871417802.704,1336.9963369963368,,1,5,1768871417.802704
1768871417810.5164,1331.8681318681315,,1,5,1768871417.8105164
1768871417818.3289,1324.5421245421244,,1,5,1768871417.8183289
1768871417826.1414,1313.5531135531137,,1,5,1768871417.8261414
1768871417833.954,1304.0293040293038,,1,5,1768871417.833954
1768871417841.7664,1296.7032967032967,,1,5,1768871417.8417664
1768871417849.5789,1293.040293040293,,0,-1,1768871417.8495789
1768871417857.3914,1291.5750915750914,,0,-1,1768871417.8573914
1768871417865.204,1294.5054945054944,,0,-1,1768871417.865204
1768871417873.0164,1297.4358974358977,,0,-1,1768871417.8730164
1768871417880.8289,1301.098901098901,,0,-1,1768871417.8808289
1768871417888.6414,1303.2967032967033,,0,-1,1768871417.8886414
1768871417896.454,1304.0293040293038,,0,-1,1768871417.896454
1768871417904.2664,1302.5641025641023,,0,-1,1768871417.9042664
1768871417912.0789,1302.5641025641023,,0,-1,1768871417.9120789
1768871417919.8914,1306.227106227106,,0,-1,1768871417.9198914
1768871417927.704,1306.9597069597069,,0,-1,1768871417.927704
1768871417935.5164,1306.227106227106,,0,-1,1768871417.9355164
1768871417943.3289,1300.3663003663005,,0,-1,1768871417.9433289
1768871417951.1414,1295.2380952380952,,0,-1,1768871417.9511414
1768871417958.954,1292.3076923076922,,0,-1,1768871417.958954
1768871417966.7664,1290.8424908424909,,0,-1,1768871417.9667664
1768871417974.5789,1291.5750915750914,,0,-1,1768871417.9745789
1768871417982.3914,1294.5054945054944,,0,-1,1768871417.9823914
1768871417990.204,1297.4358974358977,,0,-1,1768871417.990204
1768871417998.0164,1300.3663003663005,,0,-1,1768871417.9980164
1768871418005.8289,1304.0293040293038,,0,-1,1768871418.0058289
1768871418013.6414,1304.7619047619046,,0,-1,1768871418.0136414
1768871418021.454,1304.7619047619046,,0,-1,1768871418.021454
1768871418029.2664,1305.4945054945051,,0,-1,1768871418.0292664
1768871418037.0789,1304.0293040293038,,0,-1,1768871418.0370789
1768871418044.8914,1303.2967032967033,,0,-1,1768871418.0448914
1768871418052.704,1303.2967032967033,,0,-1,1768871418.052704
1768871418060.5164,1302.5641025641023,,0,-1,1768871418.0605164
1768871418068.3289,1297.4358974358977,,0,-1,1768871418.0683289
1768871418076.1414,1292.3076923076922,,0,-1,1768871418.0761414
1768871418083.954,1289.3772893772891,,0,-1,1768871418.083954
1768871418091.7664,1289.3772893772891,,0,-1,1768871418.0917664
1768871418099.5789,1290.8424908424909,,0,-1,1768871418.0995789
1768871418107.3914,1295.2380952380952,,0,-1,1768871418.1073914
1768871418115.204,1304.7619047619046,,0,-1,1768871418.115204
1768871418123.0164,1317.216117216117,,0,-1,1768871418.1230164
1768871418130.8289,1334.7985347985348,,0,-1,1768871418.1308289
1768871418138.6414,1356.7765567765566,,0,-1,1768871418.1386414
1768871418146.454,1380.2197802197802,,0,-1,1768871418.146454
1768871418154.2664,1405.128205128205,,0,-1,1768871418.1542664
1768871418162.0789,1426.3736263736262,,0,-1,1768871418.1620789
1768871418169.8914,1446.8864468864467,,0,-1,1768871418.1698914
1768871418177.704,1466.6666666666663,,0,-1,1768871418.177704
1768871418185.5164,1482.051282051282,,0,-1,1768871418.1855164
1768871418193.3289,1494.5054945054944,,0,-1,1768871418.1933289
1768871418201.1414,1500.3663003663005,,0,-1,1768871418.2011414
1768871418208.954,1502.5641025641023,,0,-1,1768871418.208954
1768871418216.7664,1498.9010989010987,,0,-1,1768871418.2167664
1768871418224.5789,1490.8424908424906,,0,-1,1768871418.2245789
1768871418232.3914,1478.3882783882782,,0,-1,1768871418.2323914
1768871418240.204,1462.2710622710622,,0,-1,1768871418.240204
1768871418248.0164,1445.4212454212454,,0,-1,1768871418.2480164
