Shimmer_6815_Timestamp_Unix_CAL,Shimmer_6815_PPG_A13_CAL,Unnamed: 2,inhale,inhale_id,epoch_sec
1768789933573.4863,68.86446886446886,,1,0,1768789933.5734863
1768789933581.2988,156.77655677655676,,1,0,1768789933.5812988
1768789933589.111,257.87545787545787,,1,0,1768789933.589111
1768789933596.9238,362.6373626373626,,1,0,1768789933.5969238
1768789933604.7363,463.7362637362637,,1,0,1768789933.6047363
1768789933612.5488,556.043956043956,,1,0,1768789933.6125488
1768789933620.3918,643.2234432234432,,1,0,1768789933.6203918
1768789933628.1738,717.9487179487179,,1,0,1768789933.6281738
1768789933635.9863,784.6153846153845,,1,0,1768789933.6359863
1768789933643.7988,840.2930402930402,,1,0,1768789933.6437988
1768789933651.611,887.9120879120878,,1,0,1768789933.651611
1768789933659.4238,931.1355311355312,,1,0,1768789933.6594238
1768789933667.2363,974.3589743589744,,1,0,1768789933.6672363
1768789933675.0488,1011.7216117216116,,1,0,1768789933.6750488
1768789933682.861,1042.4908424908424,,1,0,1768789933.682861
1768789933690.6738,1065.2014652014652,,1,0,1768789933.6906738
1768789933698.4863,1081.3186813186812,,1,0,1768789933.6984863
1768789933706.2988,1093.040293040293,,1,0,1768789933.7062988
1768789933714.111,1100.3663003663005,,1,0,1768789933.714111
1768789933721.9238,1103.2967032967033,,1,0,1768789933.7219238
1768789933729.7363,1099.6336996336995,,1,0,1768789933.7297363
1768789933737.5488,1093.7728937728937,,1,0,1768789933.7375488
1768789933745.361,1087.179487179487,,1,0,1768789933.745361
1768789933753.1738,1079.8534798534797,,1,0,1768789933.7531738
1768789933760.9863,1071.7948717948718,,1,0,1768789933.7609863
1768789933768.7988,1065.2014652014652,,1,0,1768789933.7687988
1768789933776.611,1060.07326007326,,1,0,1768789933.776611
1768789933784.4238,1057.875457875458,,1,0,1768789933.7844238
1768789933792.2363,1054.9450549450548,,1,0,1768789933.7922363
1768789933800.0488,1049.084249084249,,1,0,1768789933.8000488
1768789933807.861,1046.1538461538462,,1,0,1768789933.807861
1768789933815.6738,1046.1538461538462,,1,0,1768789933.8156738
1768789933823.4863,1049.8168498168498,,1,0,1768789933.8234863
1768789933831.2988,1058.6080586080586,,1,0,1768789933.8312988
1768789933839.111,1071.062271062271,,1,0,1768789933.839111
1768789933846.9238,1089.3772893772891,,1,0,1768789933.8469238
1768789933854.7363,1108.4249084249084,,1,0,1768789933.8547363
1768789933862.5488,1131.8681318681315,,1,0,1768789933.8625488
1768789933870.361,1158.241758241758,,1,0,1768789933.870361
1768789933878.1738,1185.3479853479853,,1,0,1768789933.8781738
1768789933885.9863,1213.1868131868132,,1,0,1768789933.8859863
1768789933893.7988,1242.4908424908424,,1,0,1768789933.8937988
1768789933901.611,1268.131868131868,,1,0,1768789933.901611
1768789933909.4238,1290.8424908424909,,1,0,1768789933.9094238
1768789933917.2363,1304.7619047619046,,1,0,1768789933.9172363
1768789933925.0488,1314.2857142857142,,0,-1,1768789933.9250488
1768789933932.861,1323.8095238095236,,0,-1,1768789933.932861
1768789933940.6738,1333.3333333333333,,0,-1,1768789933.9406738
1768789933948.4863,1340.6593406593406,,0,-1,1768789933.9484863
1768789933956.2988,1345.7875457875457,,0,-1,1768789933.9562988
1768789933964.111,1349.4505494505493,,0,-1,1768789933.964111
1768789933971.9238,1353.113553113553,,0,-1,1768789933.9719238
1768789933979.7363,1356.043956043956,,0,-1,1768789933.9797363
1768789933987.5488,1356.7765567765566,,0,-1,1768789933.9875488
1768789933995.361,1353.113553113553,,0,-1,1768789933.995361
1768789934003.1738,1349.4505494505493,,0,-1,1768789934.0031738
1768789934010.9863,1345.7875457875457,,0,-1,1768789934.0109863
1768789934018.7988,1342.124542124542,,0,-1,1768789934.0187988
1768789934026.611,1340.6593406593406,,0,-1,1768789934.026611
1768789934034.4238,1337.7289377289376,,0,-1,1768789934.0344238
1768789934042.2363,1334.065934065934,,0,-1,1768789934.0422363
1768789934050.0488,1329.6703296703297,,0,-1,1768789934.0500488
1768789934057.861,1327.4725274725274,,0,-1,1768789934.057861
1768789934065.6738,1326.007326007326,,0,-1,1768789934.0656738
1768789934073.4863,1323.8095238095236,,0,-1,1768789934.0734863
1768789934081.2988,1323.076923076923,,0,-1,1768789934.0812988
1768789934089.111,1320.8791208791208,,0,-1,1768789934.089111
1768789934096.9238,1317.216117216117,,0,-1,1768789934.0969238
1768789934104.7363,1311.3553113553112,,0,-1,1768789934.1047363
1768789934112.5488,1303.2967032967033,,0,-1,1768789934.1125488
1768789934120.361,1297.4358974358977,,0,-1,1768789934.120361
1768789934128.1738,1293.7728937728937,,0,-1,1768789934.1281738
1768789934135.9863,1295.2380952380952,,0,-1,1768789934.1359863
1768789934143.7988,1296.7032967032967,,0,-1,1768789934.1437988
1768789934151.611,1295.970695970696,,0,-1,1768789934.151611
1768789934159.4238,1296.7032967032967,,0,-1,1768789934.1594238
1768789934167.2363,1300.3663003663005,,0,-1,1768789934.1672363
1768789934175.0488,1300.3663003663005,,0,-1,1768789934.1750488
1768789934182.861,1305.4945054945051,,0,-1,1768789934.182861
1768789934190.6738,1310.6227106227104,,0,-1,1768789934.1906738
1768789934198.4863,1310.6227106227104,,0,-1,1768789934.1984863
1768789934206.2988,1311.3553113553112,,0,-1,1768789934.2062988
1768789934214.111,1312.8205128205127,,0,-1,1768789934.214111
1768789934221.9238,1315.018315018315,,0,-1,1768789934.2219238
1768789934229.7363,1317.9487179487178,,0,-1,1768789934.2297363
1768789934237.5488,1316.4835164835165,,0,-1,1768789934.2375488
1768789934245.361,1314.2857142857142,,0,-1,1768789934.245361
1768789934253.1738,1305.4945054945051,,0,-1,1768789934.2531738
1768789934260.9863,1297.4358974358977,,0,-1,1768789934.2609863
1768789934268.7988,1290.8424908424909,,0,-1,1768789934.2687988
1768789934276.611,1282.7838827838827,,0,-1,1768789934.276611
1768789934284.4238,1274.7252747252746,,0,-1,1768789934.2844238
1768789934292.2363,1266.6666666666663,,0,-1,1768789934.2922363
1768789934300.0488,1257.875457875458,,0,-1,1768789934.3000488
1768789934307.861,1249.084249084249,,0,-1,1768789934.307861
1768789934315.6738,1240.29304029304,,0,-1,1768789934.3156738
1768789934323.4863,1227.106227106227,,0,-1,1768789934.3234863
1768789934331.2988,1216.8498168498168,,0,-1,1768789934.3312988
1768789934339.111,1210.2564102564102,,0,-1,1768789934.339111
1768789934346.9238,1202.9304029304028,,0,-1,1768789934.3469238
1768789934354.7363,1194.8717948717947,,0,-1,1768789934.3547363
1768789934362.5488,1192.6739926739926,,0,-1,1768789934.3625488
1768789934370.361,1193.4065934065934,,0,-1,1768789934.370361
1768789934378.1738,1191.941391941392,,0,-1,1768789934.3781738
1768789934385.9863,1186.8131868131868,,0,-1,1768789934.3859863
1768789934393.7988,1176.5567765567764,,0,-1,1768789934.3937988
1768789934401.611,1163.3699633699632,,0,-1,1768789934.401611
1768789934409.4238,1155.311355311355,,0,-1,1768789934.4094238
1768789934417.2363,1149.4505494505493,,0,-1,1768789934.4172363
1768789934425.0488,1145.7875457875457,,0,-1,1768789934.4250488
1768789934432.861,1145.7875457875457,,0,-1,1768789934.432861
1768789934440.6738,1142.124542124542,,0,-1,1768789934.4406738
1768789934448.4863,1139.92673992674,,0,-1,1768789934.4484863
1768789934456.2988,1134.7985347985348,,0,-1,1768789934.4562988
1768789934464.111,1132.6007326007325,,0,-1,1768789934.464111
1768789934471.9238,1126.739926739927,,0,-1,1768789934.4719238
1768789934479.7363,1120.8791208791208,,0,-1,1768789934.4797363
1768789934487.5488,1113.5531135531137,,0,-1,1768789934.4875488
1768789934495.361,1106.9597069597069,,0,-1,1768789934.495361
1768789934503.1738,1095.2380952380952,,0,-1,1768789934.5031738
1768789934510.9863,1085.7142857142856,,0,-1,1768789934.5109863
1768789934518.7988,1082.051282051282,,0,-1,1768789934.5187988
1768789934526.611,1076.190476190476,,0,-1,1768789934.526611
1768789934534.4238,1071.062271062271,,0,-1,1768789934.5344238
1768789934542.2363,1068.8644688644688,,0,-1,1768789934.5422363
1768789934550.0488,1063.7362637362637,,0,-1,1768789934.5500488
1768789934557.861,1055.6776556776556,,0,-1,1768789934.557861
1768789934565.6738,1046.1538461538462,,0,-1,1768789934.5656738
1768789934573.4863,1033.6996336996335,,0,-1,1768789934.5734863
1768789934581.2988,1026.3736263736264,,0,-1,1768789934.5812988
1768789934589.111,1016.8498168498168,,0,-1,1768789934.589111
1768789934596.9238,1010.9890109890108,,0,-1,1768789934.5969238
1768789934604.7363,1010.9890109890108,,0,-1,1768789934.6047363
1768789934612.5488,1006.5934065934064,,0,-1,1768789934.6125488
1768789934620.361,1011.7216117216116,,0,-1,1768789934.620361
1768789934628.1738,1018.3150183150184,,0,-1,1768789934.6281738
1768789934635.9863,1029.3040293040292,,0,-1,1768789934.6359863
1768789934643.7988,1038.095238095238,,0,-1,1768789934.6437988
1768789934651.611,1043.2234432234432,,0,-1,1768789934.651611
1768789934659.4238,1052.7472527472528,,0,-1,1768789934.6594238
1768789934667.2363,1065.2014652014652,,0,-1,1768789934.6672363
1768789934675.0488,1080.5860805860805,,0,-1,1768789934.6750488
1768789934682.861,1099.6336996336995,,0,-1,1768789934.682861
1768789934690.6738,1116.4835164835165,,0,-1,1768789934.6906738
1768789934698.4863,1134.7985347985348,,0,-1,1768789934.6984863
1768789934706.2988,1152.3809523809523,,0,-1,1768789934.7062988
1768789934714.111,1172.161172161172,,0,-1,1768789934.714111
1768789934721.9238,1191.2087912087911,,0,-1,1768789934.7219238
1768789934729.7363,1216.117216117216,,0,-1,1768789934.7297363
1768789934737.5488,1244.688644688645,,0,-1,1768789934.7375488
1768789934745.361,1270.3296703296703,,0,-1,1768789934.745361
1768789934753.1738,1291.5750915750914,,0,-1,1768789934.7531738
1768789934760.9863,1315.018315018315,,0,-1,1768789934.7609863
1768789934768.7988,1336.263736263736,,0,-1,1768789934.7687988
1768789934776.611,1354.5787545787546,,0,-1,1768789934.776611
1768789934784.4238,1369.9633699633698,,0,-1,1768789934.7844238
1768789934792.2363,1384.6153846153843,,0,-1,1768789934.7922363
1768789934800.0488,1391.941391941392,,0,-1,1768789934.8000488
1768789934807.861,1392.6739926739926,,0,-1,1768789934.807861
1768789934815.6738,1399.2673992673992,,0,-1,1768789934.8156738
1768789934823.4863,1408.7912087912086,,0,-1,1768789934.8234863
1768789934831.2988,1415.3846153846152,,0,-1,1768789934.8312988
1768789934839.111,1426.3736263736262,,0,-1,1768789934.839111
1768789934846.9238,1439.5604395604394,,0,-1,1768789934.8469238
1768789934854.7363,1449.8168498168498,,0,-1,1768789934.8547363
1768789934862.5488,1457.875457875458,,0,-1,1768789934.8625488
1768789934870.361,1464.4688644688645,,0,-1,1768789934.870361
1768789934878.1738,1473.992673992674,,0,-1,1768789934.8781738
1768789934885.9863,1479.8534798534797,,0,-1,1768789934.8859863
1768789934893.7988,1480.5860805860805,,0,-1,1768789934.8937988
1768789934901.611,1477.6556776556777,,0,-1,1768789934.901611
1768789934909.4238,1471.7948717948716,,0,-1,1768789934.9094238
1768789934917.2363,1468.131868131868,,0,-1,1768789934.9172363
1768789934925.0488,1463.7362637362637,,0,-1,1768789934.9250488
1768789934932.861,1462.2710622710622,,0,-1,1768789934.932861
1768789934940.6738,1465.9340659340658,,0,-1,1768789934.9406738
1768789934948.4863,1473.260073260073,,0,-1,1768789934.9484863
1768789934956.2988,1479.8534798534797,,0,-1,1768789934.9562988
1768789934964.111,1482.7838827838827,,0,-1,1768789934.964111
1768789934971.9238,1481.3186813186812,,0,-1,1768789934.9719238
1768789934979.7363,1473.260073260073,,0,-1,1768789934.9797363
1768789934987.5488,1463.7362637362637,,0,-1,1768789934.9875488
1768789934995.361,1452.014652014652,,0,-1,1768789934.995361
1768789935003.1738,1439.5604395604394,,0,-1,1768789935.0031738
1768789935010.9863,1427.106227106227,,0,-1,1768789935.0109863
1768789935018.7988,1419.7802197802198,,0,-1,1768789935.0187988
1768789935026.611,1415.3846153846152,,0,-1,1768789935.026611
1768789935034.4238,1410.989010989011,,0,-1,1768789935.0344238
1768789935042.2363,1407.3260073260071,,0,-1,1768789935.0422363
1768789935050.0488,1405.8608058608058,,0,-1,1768789935.0500488
1768789935057.861,1408.7912087912086,,0,-1,1768789935.057861
1768789935065.6738,1408.058608058608,,0,-1,1768789935.0656738
1768789935073.4863,1405.8608058608058,,0,-1,1768789935.0734863
1768789935081.2988,1403.6630036630036,,0,-1,1768789935.0812988
1768789935089.111,1401.4652014652013,,0,-1,1768789935.089111
1768789935096.9238,1397.069597069597,,0,-1,1768789935.0969238
1768789935104.7363,1391.2087912087911,,0,-1,1768789935.1047363
1768789935112.5488,1384.6153846153843,,0,-1,1768789935.1125488
1768789935120.361,1379.4871794871794,,0,-1,1768789935.120361
1768789935128.1738,1374.3589743589744,,0,-1,1768789935.1281738
1768789935135.9863,1370.6959706959706,,0,-1,1768789935.1359863
1768789935143.7988,1371.428571428571,,0,-1,1768789935.1437988
1768789935151.611,1375.091575091575,,0,-1,1768789935.151611
1768789935159.4238,1380.2197802197802,,0,-1,1768789935.1594238
1768789935167.2363,1383.150183150183,,0,-1,1768789935.1672363
1768789935175.0488,1384.6153846153843,,0,-1,1768789935.1750488
1768789935182.861,1380.2197802197802,,0,-1,1768789935.182861
1768789935190.6738,1375.8241758241757,,0,-1,1768789935.1906738
1768789935198.4863,1366.3003663003662,,0,-1,1768789935.1984863
1768789935206.2988,1358.974358974359,,0,-1,1768789935.2062988
1768789935214.111,1349.4505494505493,,0,-1,1768789935.214111
1768789935221.9238,1340.6593406593406,,0,-1,1768789935.2219238
1768789935229.7363,1328.937728937729,,0,-1,1768789935.2297363
1768789935237.5488,1323.8095238095236,,0,-1,1768789935.2375488
1768789935245.361,1317.9487179487178,,0,-1,1768789935.245361
1768789935253.1738,1312.087912087912,,0,-1,1768789935.2531738
1768789935260.9863,1304.7619047619046,,0,-1,1768789935.2609863
1768789935268.7988,1300.3663003663005,,0,-1,1768789935.2687988
1768789935276.611,1296.7032967032967,,0,-1,1768789935.276611
1768789935284.4238,1294.5054945054944,,0,-1,1768789935.2844238
1768789935292.2363,1293.7728937728937,,0,-1,1768789935.2922363
1768789935300.0488,1292.3076923076922,,0,-1,1768789935.3000488
1768789935307.861,1291.5750915750914,,0,-1,1768789935.307861
1768789935315.6738,1290.8424908424909,,0,-1,1768789935.3156738
1768789935323.4863,1289.3772893772891,,0,-1,1768789935.3234863
1768789935331.2988,1287.179487179487,,0,-1,1768789935.3312988
1768789935339.111,1287.9120879120878,,0,-1,1768789935.339111
1768789935346.9238,1291.5750915750914,,0,-1,1768789935.3469238
1768789935354.7363,1296.7032967032967,,0,-1,1768789935.3547363
1768789935362.5488,1299.6336996336995,,0,-1,1768789935.3625488
1768789935370.361,1301.098901098901,,0,-1,1768789935.370361
1768789935378.1738,1302.5641025641023,,0,-1,1768789935.3781738
1768789935385.9863,1301.098901098901,,0,-1,1768789935.3859863
1768789935393.7988,1297.4358974358977,,0,-1,1768789935.3937988
1768789935401.611,1294.5054945054944,,0,-1,1768789935.401611
1768789935409.4238,1294.5054945054944,,0,-1,1768789935.4094238
1768789935417.2363,1294.5054945054944,,0,-1,1768789935.4172363
1768789935425.0488,1290.10989010989,,0,-1,1768789935.4250488
1768789935432.861,1284.9816849816848,,0,-1,1768789935.432861
1768789935440.6738,1287.9120879120878,,0,-1,1768789935.4406738
1768789935448.4863,1287.9120879120878,,0,-1,1768789935.4484863
1768789935456.2988,1282.051282051282,,0,-1,1768789935.4562988
1768789935464.111,1277.6556776556777,,0,-1,1768789935.464111
1768789935471.9238,1274.7252747252746,,0,-1,1768789935.4719238
1768789935479.7363,1273.260073260073,,0,-1,1768789935.4797363
1768789935487.5488,1267.3992673992673,,0,-1,1768789935.4875488
1768789935495.361,1263.003663003663,,0,-1,1768789935.495361
1768789935503.1738,1259.3406593406592,,0,-1,1768789935.5031738
1768789935510.9863,1256.4102564102564,,0,-1,1768789935.5109863
1768789935518.7988,1254.212454212454,,0,-1,1768789935.5187988
1768789935526.611,1255.6776556776556,,0,-1,1768789935.526611
1768789935534.4238,1258.6080586080586,,0,-1,1768789935.5344238
1768789935542.2363,1262.2710622710622,,0,-1,1768789935.5422363
1768789935550.0488,1260.805860805861,,0,-1,1768789935.5500488
1768789935557.861,1255.6776556776556,,0,-1,1768789935.557861
1768789935565.6738,1251.2820512820513,,0,-1,1768789935.5656738
1768789935573.4863,1246.8864468864467,,0,-1,1768789935.5734863
1768789935581.2988,1243.956043956044,,0,-1,1768789935.5812988
1768789935589.111,1238.8278388278388,,0,-1,1768789935.589111
1768789935596.9238,1235.8974358974358,,0,-1,1768789935.5969238
1768789935604.7363,1235.164835164835,,0,-1,1768789935.6047363
1768789935612.5488,1234.4322344322345,,0,-1,1768789935.6125488
1768789935620.361,1240.29304029304,,0,-1,1768789935.620361
1768789935628.1738,1253.479853479853,,0,-1,1768789935.6281738
1768789935635.9863,1266.6666666666663,,0,-1,1768789935.6359863
1768789935643.7988,1281.3186813186812,,0,-1,1768789935.6437988
1768789935651.611,1302.5641025641023,,0,-1,1768789935.651611
1768789935659.4238,1321.6117216117216,,0,-1,1768789935.6594238
1768789935667.2363,1345.054945054945,,0,-1,1768789935.6672363
1768789935675.0488,1361.904761904762,,0,-1,1768789935.6750488
1768789935682.861,1380.2197802197802,,0,-1,1768789935.682861
1768789935690.6738,1402.197802197802,,0,-1,1768789935.6906738
1768789935698.4863,1416.8498168498168,,0,-1,1768789935.6984863
1768789935706.2988,1428.5714285714284,,0,-1,1768789935.7062988
1768789935714.111,1440.29304029304,,0,-1,1768789935.714111
1768789935721.9238,1447.6190476190477,,0,-1,1768789935.7219238
1768789935729.7363,1455.6776556776556,,0,-1,1768789935.7297363
1768789935737.5488,1457.875457875458,,0,-1,1768789935.7375488
1768789935745.361,1461.5384615384614,,0,-1,1768789935.745361
1768789935753.1738,1468.131868131868,,0,-1,1768789935.7531738
1768789935760.9863,1468.131868131868,,0,-1,1768789935.7609863
1768789935768.7988,1466.6666666666663,,0,-1,1768789935.7687988
1768789935776.611,1468.131868131868,,0,-1,1768789935.776611
1768789935784.4238,1469.5970695970695,,0,-1,1768789935.7844238
1768789935792.2363,1477.6556776556777,,0,-1,1768789935.7922363
1768789935800.0488,1479.120879120879,,0,-1,1768789935.8000488
1768789935807.861,1482.051282051282,,0,-1,1768789935.807861
1768789935815.6738,1481.3186813186812,,0,-1,1768789935.8156738
1768789935823.4863,1487.9120879120878,,0,-1,1768789935.8234863
1768789935831.2988,1493.040293040293,,0,-1,1768789935.8312988
1768789935839.111,1501.8315018315018,,0,-1,1768789935.839111
1768789935846.9238,1507.6923076923076,,0,-1,1768789935.8469238
1768789935854.7363,1515.7509157509155,,0,-1,1768789935.8547363
1768789935862.5488,1514.2857142857142,,0,-1,1768789935.8625488
1768789935870.361,1515.018315018315,,0,-1,1768789935.870361
1768789935878.1738,1512.087912087912,,0,-1,1768789935.8781738
1768789935885.9863,1505.4945054945051,,0,-1,1768789935.8859863
1768789935893.7988,1498.9010989010987,,0,-1,1768789935.8937988
1768789935901.611,1493.040293040293,,0,-1,1768789935.901611
1768789935909.4238,1487.9120879120878,,0,-1,1768789935.9094238
1768789935917.2363,1487.9120879120878,,0,-1,1768789935.9172363
1768789935925.0488,1482.051282051282,,0,-1,1768789935.9250488
1768789935932.861,1475.4578754578754,,0,-1,1768789935.932861
1768789935940.6738,1472.5274725274724,,0,-1,1768789935.9406738
1768789935948.4863,1475.4578754578754,,0,-1,1768789935.9484863
1768789935956.2988,1476.190476190476,,0,-1,1768789935.9562988
1768789935964.111,1476.190476190476,,0,-1,1768789935.964111
1768789935971.9238,1478.3882783882782,,0,-1,1768789935.9719238
1768789935979.7363,1477.6556776556777,,0,-1,1768789935.9797363
1768789935987.5488,1470.3296703296703,,0,-1,1768789935.9875488
1768789935995.361,1465.201465201465,,0,-1,1768789935.995361
1768789936003.1738,1455.6776556776556,,0,-1,1768789936.0031738
1768789936010.9863,1447.6190476190477,,0,-1,1768789936.0109863
1768789936018.7988,1436.6300366300366,,0,-1,1768789936.0187988
1768789936026.611,1428.5714285714284,,0,-1,1768789936.026611
1768789936034.4238,1421.245421245421,,0,-1,1768789936.0344238
1768789936042.2363,1410.989010989011,,0,-1,1768789936.0422363
1768789936050.0488,1408.058608058608,,0,-1,1768789936.0500488
1768789936057.861,1402.197802197802,,0,-1,1768789936.057861
1768789936065.6738,1391.941391941392,,0,-1,1768789936.0656738
1768789936073.4863,1386.080586080586,,0,-1,1768789936.0734863
1768789936081.2988,1377.2893772893772,,0,-1,1768789936.0812988
1768789936089.111,1372.8937728937728,,0,-1,1768789936.089111
1768789936096.9238,1370.6959706959706,,0,-1,1768789936.0969238
1768789936104.7363,1362.6373626373625,,0,-1,1768789936.1047363
1768789936112.5488,1359.7069597069597,,0,-1,1768789936.1125488
1768789936120.361,1354.5787545787546,,0,-1,1768789936.120361
1768789936128.1738,1352.3809523809523,,0,-1,1768789936.1281738
1768789936135.9863,1340.6593406593406,,0,-1,1768789936.1359863
1768789936143.7988,1331.8681318681315,,0,-1,1768789936.1437988
1768789936151.611,1318.6813186813183,,0,-1,1768789936.151611
1768789936159.4238,1311.3553113553112,,0,-1,1768789936.1594238
1768789936167.2363,1304.7619047619046,,0,-1,1768789936.1672363
1768789936175.0488,1306.9597069597069,,0,-1,1768789936.1750488
1768789936182.861,1306.9597069597069,,0,-1,1768789936.182861
1768789936190.6738,1309.1575091575091,,0,-1,1768789936.1906738
1768789936198.4863,1306.227106227106,,0,-1,1768789936.1984863
1768789936206.2988,1309.89010989011,,0,-1,1768789936.2062988
1768789936214.111,1311.3553113553112,,0,-1,1768789936.214111
1768789936221.9238,1317.9487179487178,,0,-1,1768789936.2219238
1768789936229.7363,1320.8791208791208,,0,-1,1768789936.2297363
1768789936237.5488,1328.937728937729,,0,-1,1768789936.2375488
1768789936245.361,1334.7985347985348,,0,-1,1768789936.245361
1768789936253.1738,1337.7289377289376,,0,-1,1768789936.2531738
1768789936260.9863,1342.124542124542,,0,-1,1768789936.2609863
1768789936268.7988,1339.194139194139,,0,-1,1768789936.2687988
1768789936276.611,1342.124542124542,,0,-1,1768789936.276611
1768789936284.4238,1342.857142857143,,0,-1,1768789936.2844238
1768789936292.2363,1341.3919413919414,,0,-1,1768789936.2922363
1768789936300.0488,1342.857142857143,,0,-1,1768789936.3000488
1768789936307.861,1340.6593406593406,,0,-1,1768789936.307861
1768789936315.6738,1337.7289377289376,,0,-1,1768789936.3156738
1768789936323.4863,1339.194139194139,,0,-1,1768789936.3234863
1768789936331.2988,1334.7985347985348,,0,-1,1768789936.3312988
1768789936339.111,1336.263736263736,,0,-1,1768789936.339111
1768789936346.9238,1338.4615384615383,,0,-1,1768789936.3469238
1768789936354.7363,1334.065934065934,,0,-1,1768789936.3547363
1768789936362.5488,1330.4029304029302,,0,-1,1768789936.3625488
1768789936370.361,1323.8095238095236,,0,-1,1768789936.370361
1768789936378.1738,1316.4835164835165,,0,-1,1768789936.3781738
1768789936385.9863,1312.8205128205127,,0,-1,1768789936.3859863
1768789936393.7988,1311.3553113553112,,0,-1,1768789936.3937988
1768789936401.611,1309.89010989011,,0,-1,1768789936.401611
1768789936409.4238,1312.8205128205127,,0,-1,1768789936.4094238
1768789936417.2363,1317.216117216117,,0,-1,1768789936.4172363
1768789936425.0488,1320.14652014652,,0,-1,1768789936.4250488
1768789936432.861,1317.9487179487178,,0,-1,1768789936.432861
1768789936440.6738,1319.4139194139193,,0,-1,1768789936.4406738
1768789936448.4863,1321.6117216117216,,0,-1,1768789936.4484863
1768789936456.2988,1318.6813186813183,,0,-1,1768789936.4562988
1768789936464.111,1315.7509157509155,,0,-1,1768789936.464111
1768789936471.9238,1313.5531135531137,,0,-1,1768789936.4719238
1768789936479.7363,1308.4249084249084,,0,-1,1768789936.4797363
1768789936487.5488,1303.2967032967033,,0,-1,1768789936.4875488
1768789936495.361,1301.098901098901,,0,-1,1768789936.495361
1768789936503.1738,1298.168498168498,,0,-1,1768789936.5031738
1768789936510.9863,1287.179487179487,,0,-1,1768789936.5109863
1768789936518.7988,1277.6556776556777,,0,-1,1768789936.5187988
1768789936526.611,1266.6666666666663,,0,-1,1768789936.526611
1768789936534.4238,1257.875457875458,,0,-1,1768789936.5344238
1768789936542.2363,1252.014652014652,,0,-1,1768789936.5422363
1768789936550.0488,1247.6190476190477,,0,-1,1768789936.5500488
1768789936557.861,1245.4212454212454,,0,-1,1768789936.557861
1768789936565.6738,1240.29304029304,,0,-1,1768789936.5656738
1768789936573.4863,1237.362637362637,,0,-1,1768789936.5734863
1768789936581.2988,1235.164835164835,,0,-1,1768789936.5812988
1768789936589.111,1230.03663003663,,0,-1,1768789936.589111
1768789936596.9238,1228.5714285714284,,0,-1,1768789936.5969238
1768789936604.7363,1228.5714285714284,,0,-1,1768789936.6047363
1768789936612.5488,1227.106227106227,,0,-1,1768789936.6125488
1768789936620.361,1229.3040293040292,,0,-1,1768789936.620361
1768789936628.1738,1236.6300366300366,,0,-1,1768789936.6281738
1768789936635.9863,1242.4908424908424,,0,-1,1768789936.6359863
1768789936643.7988,1251.2820512820513,,0,-1,1768789936.6437988
1768789936651.611,1265.9340659340658,,0,-1,1768789936.651611
1768789936659.4238,1282.051282051282,,0,-1,1768789936.6594238
1768789936667.2363,1300.3663003663005,,0,-1,1768789936.6672363
1768789936675.0488,1323.8095238095236,,0,-1,1768789936.6750488
1768789936682.861,1353.8461538461538,,0,-1,1768789936.682861
1768789936690.6738,1385.3479853479853,,0,-1,1768789936.6906738
1768789936698.4863,1416.117216117216,,0,-1,1768789936.6984863
1768789936706.2988,1442.4908424908424,,0,-1,1768789936.7062988
1768789936714.111,1465.9340659340658,,0,-1,1768789936.714111
1768789936721.9238,1486.4468864468863,,0,-1,1768789936.7219238
1768789936729.7363,1506.227106227106,,0,-1,1768789936.7297363
1768789936737.5488,1520.14652014652,,0,-1,1768789936.7375488
1768789936745.361,1531.135531135531,,0,-1,1768789936.745361
1768789936753.1738,1537.7289377289376,,0,-1,1768789936.7531738
1768789936760.9863,1545.7875457875457,,0,-1,1768789936.7609863
1768789936768.7988,1547.985347985348,,0,-1,1768789936.7687988
1768789936776.611,1550.9157509157508,,0,-1,1768789936.776611
1768789936784.4238,1555.311355311355,,0,-1,1768789936.7844238
1768789936792.2363,1563.3699633699632,,0,-1,1768789936.7922363
1768789936800.0488,1567.7655677655678,,0,-1,1768789936.8000488
1768789936807.861,1573.6263736263736,,0,-1,1768789936.807861
1768789936815.6738,1578.021978021978,,0,-1,1768789936.8156738
1768789936823.4863,1582.4175824175825,,0,-1,1768789936.8234863
1768789936831.2988,1586.080586080586,,0,-1,1768789936.8312988
1768789936839.111,1587.545787545787,,0,-1,1768789936.839111
1768789936846.9238,1583.8827838827838,,0,-1,1768789936.8469238
1768789936854.7363,1578.7545787545787,,0,-1,1768789936.8547363
1768789936862.5488,1568.4981684981683,,0,-1,1768789936.8625488
1768789936870.361,1557.5091575091574,,0,-1,1768789936.870361
1768789936878.1738,1545.054945054945,,0,-1,1768789936.8781738
1768789936885.9863,1534.065934065934,,0,-1,1768789936.8859863
1768789936893.7988,1520.8791208791208,,0,-1,1768789936.8937988
1768789936901.611,1508.4249084249084,,0,-1,1768789936.901611
1768789936909.4238,1495.970695970696,,0,-1,1768789936.9094238
1768789936917.2363,1487.179487179487,,0,-1,1768789936.9172363
1768789936925.0488,1478.3882783882782,,0,-1,1768789936.9250488
1768789936932.861,1469.5970695970695,,0,-1,1768789936.932861
1768789936940.6738,1465.9340659340658,,0,-1,1768789936.9406738
1768789936948.4863,1466.6666666666663,,0,-1,1768789936.9484863
1768789936956.2988,1469.5970695970695,,0,-1,1768789936.9562988
1768789936964.111,1473.260073260073,,0,-1,1768789936.964111
1768789936971.9238,1476.190476190476,,0,-1,1768789936.9719238
1768789936979.7363,1474.7252747252746,,0,-1,1768789936.9797363
1768789936987.5488,1471.7948717948716,,0,-1,1768789936.9875488
1768789936995.361,1465.201465201465,,0,-1,1768789936.995361
1768789937003.1738,1456.4102564102564,,0,-1,1768789937.0031738
1768789937010.9863,1448.3516483516482,,0,-1,1768789937.0109863
1768789937018.7988,1441.7582417582416,,0,-1,1768789937.0187988
1768789937026.611,1435.8974358974358,,0,-1,1768789937.026611
1768789937034.4238,1428.5714285714284,,0,-1,1768789937.0344238
1768789937042.2363,1422.7106227106226,,0,-1,1768789937.0422363
1768789937050.0488,1414.6520146520145,,0,-1,1768789937.0500488
1768789937057.861,1400.7326007326003,,0,-1,1768789937.057861
1768789937065.6738,1383.150183150183,,0,-1,1768789937.0656738
1768789937073.4863,1368.4981684981683,,0,-1,1768789937.0734863
1768789937081.2988,1362.6373626373625,,0,-1,1768789937.0812988
1768789937089.111,1361.904761904762,,0,-1,1768789937.089111
1768789937096.9238,1361.1721611721612,,0,-1,1768789937.0969238
1768789937104.7363,1362.6373626373625,,0,-1,1768789937.1047363
1768789937112.5488,1364.102564102564,,0,-1,1768789937.1125488
1768789937120.361,1363.3699633699632,,0,-1,1768789937.120361
1768789937128.1738,1361.904761904762,,0,-1,1768789937.1281738
1768789937135.9863,1355.311355311355,,0,-1,1768789937.1359863
1768789937143.7988,1347.985347985348,,0,-1,1768789937.1437988
1768789937151.611,1341.3919413919414,,0,-1,1768789937.151611
1768789937159.4238,1334.7985347985348,,0,-1,1768789937.1594238
1768789937167.2363,1331.8681318681315,,0,-1,1768789937.1672363
1768789937175.0488,1331.8681318681315,,0,-1,1768789937.1750488
1768789937182.861,1327.4725274725274,,0,-1,1768789937.182861
1768789937190.6738,1317.9487179487178,,0,-1,1768789937.1906738
1768789937198.4863,1307.6923076923076,,0,-1,1768789937.1984863
1768789937206.2988,1298.9010989010987,,0,-1,1768789937.2062988
1768789937214.111,1293.040293040293,,0,-1,1768789937.214111
1768789937221.9238,1287.9120879120878,,0,-1,1768789937.2219238
1768789937229.7363,1283.5164835164835,,0,-1,1768789937.2297363
1768789937237.5488,1280.5860805860805,,0,-1,1768789937.2375488
1768789937245.361,1279.120879120879,,0,-1,1768789937.245361
1768789937253.1738,1276.190476190476,,0,-1,1768789937.2531738
1768789937260.9863,1277.6556776556777,,0,-1,1768789937.2609863
1768789937268.7988,1284.9816849816848,,0,-1,1768789937.2687988
1768789937276.611,1295.2380952380952,,0,-1,1768789937.276611
1768789937284.4238,1300.3663003663005,,0,-1,1768789937.2844238
1768789937292.2363,1304.7619047619046,,0,-1,1768789937.2922363
1768789937300.0488,1309.89010989011,,0,-1,1768789937.3000488
1768789937307.861,1315.7509157509155,,0,-1,1768789937.307861
1768789937315.6738,1321.6117216117216,,0,-1,1768789937.3156738
1768789937323.4863,1323.8095238095236,,0,-1,1768789937.3234863
1768789937331.2988,1326.007326007326,,0,-1,1768789937.3312988
1768789937339.111,1328.2051282051282,,0,-1,1768789937.339111
1768789937346.9238,1323.076923076923,,0,-1,1768789937.3469238
1768789937354.7363,1320.14652014652,,0,-1,1768789937.3547363
1768789937362.5488,1320.8791208791208,,0,-1,1768789937.3625488
1768789937370.361,1317.216117216117,,0,-1,1768789937.370361
1768789937378.1738,1308.4249084249084,,0,-1,1768789937.3781738
1768789937385.9863,1302.5641025641023,,0,-1,1768789937.3859863
1768789937393.7988,1294.5054945054944,,0,-1,1768789937.3937988
1768789937401.611,1286.4468864468863,,0,-1,1768789937.401611
1768789937409.4238,1282.051282051282,,0,-1,1768789937.4094238
1768789937417.2363,1273.260073260073,,0,-1,1768789937.4172363
1768789937425.0488,1264.4688644688645,,0,-1,1768789937.4250488
1768789937432.861,1258.6080586080586,,0,-1,1768789937.432861
1768789937440.6738,1250.5494505494505,,0,-1,1768789937.4406738
1768789937448.4863,1241.0256410256409,,0,-1,1768789937.4484863
1768789937456.2988,1233.6996336996335,,0,-1,1768789937.4562988
1768789937464.111,1234.4322344322345,,0,-1,1768789937.464111
1768789937471.9238,1238.8278388278388,,0,-1,1768789937.4719238
1768789937479.7363,1241.7582417582416,,0,-1,1768789937.4797363
1768789937487.5488,1239.5604395604396,,0,-1,1768789937.4875488
1768789937495.361,1240.29304029304,,0,-1,1768789937.495361
1768789937503.1738,1245.4212454212454,,0,-1,1768789937.5031738
1768789937510.9863,1246.8864468864467,,0,-1,1768789937.5109863
1768789937518.7988,1246.153846153846,,0,-1,1768789937.5187988
1768789937526.611,1247.6190476190477,,0,-1,1768789937.526611
1768789937534.4238,1244.688644688645,,0,-1,1768789937.5344238
1768789937542.2363,1246.8864468864467,,0,-1,1768789937.5422363
1768789937550.0488,1246.153846153846,,1,1,1768789937.5500488
1768789937557.861,1250.5494505494505,,1,1,1768789937.557861
1768789937565.6738,1253.479853479853,,1,1,1768789937.5656738
1768789937573.4863,1260.805860805861,,1,1,1768789937.5734863
1768789937581.2988,1272.5274725274724,,1,1,1768789937.5812988
1768789937589.111,1282.051282051282,,1,1,1768789937.589111
1768789937596.9238,1301.098901098901,,1,1,1768789937.5969238
1768789937604.7363,1322.3443223443223,,1,1,1768789937.6047363
1768789937612.5488,1340.6593406593406,,1,1,1768789937.6125488
1768789937620.361,1363.3699633699632,,1,1,1768789937.620361
1768789937628.1738,1383.150183150183,,1,1,1768789937.6281738
1768789937635.9863,1405.128205128205,,1,1,1768789937.6359863
1768789937643.7988,1425.6410256410256,,1,1,1768789937.6437988
1768789937651.611,1442.4908424908424,,1,1,1768789937.651611
1768789937659.4238,1460.07326007326,,1,1,1768789937.6594238
1768789937667.2363,1469.5970695970695,,1,1,1768789937.6672363
1768789937675.0488,1476.190476190476,,1,1,1768789937.6750488
1768789937682.861,1469.5970695970695,,1,1,1768789937.682861
1768789937690.6738,1468.131868131868,,1,1,1768789937.6906738
1768789937698.4863,1463.7362637362637,,1,1,1768789937.6984863
1768789937706.2988,1465.201465201465,,1,1,1768789937.7062988
1768789937714.111,1468.8644688644688,,1,1,1768789937.714111
1768789937721.9238,1472.5274725274724,,1,1,1768789937.7219238
1768789937729.7363,1480.5860805860805,,1,1,1768789937.7297363
1768789937737.5488,1482.051282051282,,1,1,1768789937.7375488
1768789937745.361,1489.3772893772891,,1,1,1768789937.745361
1768789937753.1738,1490.10989010989,,1,1,1768789937.7531738
1768789937760.9863,1493.040293040293,,1,1,1768789937.7609863
1768789937768.7988,1492.3076923076922,,1,1,1768789937.7687988
1768789937776.611,1491.5750915750914,,1,1,1768789937.776611
1768789937784.4238,1492.3076923076922,,1,1,1768789937.7844238
1768789937792.2363,1494.5054945054944,,1,1,1768789937.7922363
1768789937800.0488,1495.2380952380952,,1,1,1768789937.8000488
1768789937807.861,1499.6336996336995,,1,1,1768789937.807861
1768789937815.6738,1501.098901098901,,1,1,1768789937.8156738
1768789937823.4863,1501.098901098901,,1,1,1768789937.8234863
1768789937831.2988,1500.3663003663005,,1,1,1768789937.8312988
1768789937839.111,1490.8424908424906,,1,1,1768789937.839111
1768789937846.9238,1479.120879120879,,1,1,1768789937.8469238
1768789937854.7363,1462.2710622710622,,1,1,1768789937.8547363
1768789937862.5488,1446.153846153846,,1,1,1768789937.8625488
1768789937870.361,1432.9670329670328,,1,1,1768789937.870361
1768789937878.1738,1417.5824175824175,,1,1,1768789937.8781738
1768789937885.9863,1411.7216117216117,,1,1,1768789937.8859863
1768789937893.7988,1405.8608058608058,,1,1,1768789937.8937988
1768789937901.611,1405.128205128205,,1,1,1768789937.901611
1768789937909.4238,1405.128205128205,,1,1,1768789937.9094238
1768789937917.2363,1410.989010989011,,1,1,1768789937.9172363
1768789937925.0488,1417.5824175824175,,1,1,1768789937.9250488
1768789937932.861,1423.4432234432234,,1,1,1768789937.932861
1768789937940.6738,1426.3736263736262,,1,1,1768789937.9406738
1768789937948.4863,1428.5714285714284,,1,1,1768789937.9484863
1768789937956.2988,1429.3040293040292,,1,1,1768789937.9562988
1768789937964.111,1430.03663003663,,1,1,1768789937.964111
1768789937971.9238,1433.6996336996335,,1,1,1768789937.9719238
1768789937979.7363,1430.7692307692307,,1,1,1768789937.9797363
1768789937987.5488,1429.3040293040292,,1,1,1768789937.9875488
1768789937995.361,1428.5714285714284,,1,1,1768789937.995361
1768789938003.1738,1423.4432234432234,,1,1,1768789938.0031738
1768789938010.9863,1415.3846153846152,,1,1,1768789938.0109863
1768789938018.7988,1407.3260073260071,,1,1,1768789938.0187988
1768789938026.611,1397.069597069597,,1,1,1768789938.026611
1768789938034.4238,1386.8131868131868,,1,1,1768789938.0344238
1768789938042.2363,1378.7545787545787,,1,1,1768789938.0422363
1768789938050.0488,1367.032967032967,,1,1,1768789938.0500488
1768789938057.861,1356.7765567765566,,1,1,1768789938.057861
1768789938065.6738,1346.5201465201465,,1,1,1768789938.0656738
1768789938073.4863,1332.6007326007325,,1,1,1768789938.0734863
1768789938081.2988,1325.2747252747251,,1,1,1768789938.0812988
1768789938089.111,1321.6117216117216,,1,1,1768789938.089111
1768789938096.9238,1316.4835164835165,,1,1,1768789938.0969238
1768789938104.7363,1318.6813186813183,,1,1,1768789938.1047363
1768789938112.5488,1319.4139194139193,,1,1,1768789938.1125488
1768789938120.361,1319.4139194139193,,1,1,1768789938.120361
1768789938128.1738,1326.007326007326,,1,1,1768789938.1281738
1768789938135.9863,1328.937728937729,,1,1,1768789938.1359863
1768789938143.7988,1333.3333333333333,,1,1,1768789938.1437988
1768789938151.611,1336.9963369963368,,1,1,1768789938.151611
1768789938159.4238,1342.124542124542,,1,1,1768789938.1594238
1768789938167.2363,1342.124542124542,,1,1,1768789938.1672363
1768789938175.0488,1338.4615384615383,,1,1,1768789938.1750488
1768789938182.861,1334.065934065934,,1,1,1768789938.182861
1768789938190.6738,1328.937728937729,,1,1,1768789938.1906738
1768789938198.4863,1320.8791208791208,,1,1,1768789938.1984863
1768789938206.2988,1315.018315018315,,1,1,1768789938.2062988
1768789938214.111,1306.9597069597069,,1,1,1768789938.214111
1768789938221.9238,1301.098901098901,,1,1,1768789938.2219238
1768789938229.7363,1300.3663003663005,,1,1,1768789938.2297363
1768789938237.5488,1303.2967032967033,,1,1,1768789938.2375488
1768789938245.361,1309.1575091575091,,1,1,1768789938.245361
1768789938253.1738,1314.2857142857142,,1,1,1768789938.2531738
1768789938260.9863,1317.216117216117,,1,1,1768789938.2609863
1768789938268.7988,1317.9487179487178,,1,1,1768789938.2687988
1768789938276.611,1320.8791208791208,,1,1,1768789938.276611
1768789938284.4238,1320.8791208791208,,1,1,1768789938.2844238
1768789938292.2363,1316.4835164835165,,1,1,1768789938.2922363
1768789938300.0488,1309.1575091575091,,1,1,1768789938.3000488
1768789938307.861,1301.098901098901,,1,1,1768789938.307861
1768789938315.6738,1296.7032967032967,,1,1,1768789938.3156738
1768789938323.4863,1289.3772893772891,,1,1,1768789938.3234863
1768789938331.2988,1283.5164835164835,,1,1,1768789938.3312988
1768789938339.111,1281.3186813186812,,1,1,1768789938.339111
1768789938346.9238,1280.5860805860805,,1,1,1768789938.3469238
1768789938354.7363,1280.5860805860805,,1,1,1768789938.3547363
1768789938362.5488,1280.5860805860805,,1,1,1768789938.3625488
1768789938370.361,1277.6556776556777,,1,1,1768789938.370361
1768789938378.1738,1273.992673992674,,1,1,1768789938.3781738
1768789938385.9863,1267.3992673992673,,1,1,1768789938.3859863
1768789938393.7988,1267.3992673992673,,1,1,1768789938.3937988
1768789938401.611,1271.062271062271,,1,1,1768789938.401611
1768789938409.4238,1278.3882783882782,,1,1,1768789938.4094238
1768789938417.2363,1286.4468864468863,,1,1,1768789938.4172363
1768789938425.0488,1295.2380952380952,,1,1,1768789938.4250488
1768789938432.861,1304.7619047619046,,1,1,1768789938.432861
1768789938440.6738,1314.2857142857142,,1,1,1768789938.4406738
1768789938448.4863,1322.3443223443223,,1,1,1768789938.4484863
1768789938456.2988,1326.739926739927,,1,1,1768789938.4562988
1768789938464.111,1333.3333333333333,,1,1,1768789938.464111
1768789938471.9238,1344.3223443223442,,1,1,1768789938.4719238
1768789938479.7363,1364.8351648351647,,1,1,1768789938.4797363
1768789938487.5488,1388.278388278388,,1,1,1768789938.4875488
1768789938495.361,1411.7216117216117,,1,1,1768789938.495361
1768789938503.1738,1431.5018315018317,,1,1,1768789938.5031738
1768789938510.9863,1452.014652014652,,1,1,1768789938.5109863
1768789938518.7988,1471.7948717948716,,1,1,1768789938.5187988
1768789938526.611,1486.4468864468863,,1,1,1768789938.526611
1768789938534.4238,1495.2380952380952,,1,1,1768789938.5344238
1768789938542.2363,1504.7619047619046,,1,1,1768789938.5422363
1768789938550.0488,1517.9487179487178,,1,1,1768789938.5500488
1768789938557.861,1527.4725274725274,,1,1,1768789938.557861
1768789938565.6738,1528.937728937729,,1,1,1768789938.5656738
1768789938573.4863,1528.2051282051282,,1,1,1768789938.5734863
1768789938581.2988,1528.2051282051282,,1,1,1768789938.5812988
1768789938589.111,1526.007326007326,,1,1,1768789938.589111
1768789938596.9238,1523.0769230769229,,1,1,1768789938.5969238
1768789938604.7363,1520.14652014652,,1,1,1768789938.6047363
1768789938612.5488,1517.216117216117,,1,1,1768789938.6125488
1768789938620.361,1513.5531135531137,,1,1,1768789938.620361
1768789938628.1738,1509.89010989011,,1,1,1768789938.6281738
1768789938635.9863,1501.098901098901,,1,1,1768789938.6359863
1768789938643.7988,1492.3076923076922,,1,1,1768789938.6437988
1768789938651.611,1484.2490842490845,,1,1,1768789938.651611
1768789938659.4238,1476.190476190476,,1,1,1768789938.6594238
1768789938667.2363,1468.131868131868,,1,1,1768789938.6672363
1768789938675.0488,1459.3406593406592,,1,1,1768789938.6750488
1768789938682.861,1455.6776556776556,,1,1,1768789938.682861
1768789938690.6738,1452.7472527472526,,1,1,1768789938.6906738
1768789938698.4863,1452.7472527472526,,1,1,1768789938.6984863
1768789938706.2988,1449.8168498168498,,1,1,1768789938.7062988
1768789938714.111,1449.8168498168498,,1,1,1768789938.714111
1768789938721.9238,1448.3516483516482,,1,1,1768789938.7219238
1768789938729.7363,1444.688644688645,,1,1,1768789938.7297363
1768789938737.5488,1438.8278388278388,,1,1,1768789938.7375488
1768789938745.361,1432.2344322344322,,1,1,1768789938.745361
1768789938753.1738,1430.03663003663,,1,1,1768789938.7531738
1768789938760.9863,1428.5714285714284,,1,1,1768789938.7609863
1768789938768.7988,1427.8388278388277,,1,1,1768789938.7687988
1768789938776.611,1425.6410256410256,,1,1,1768789938.776611
1768789938784.4238,1423.4432234432234,,1,1,1768789938.7844238
1768789938792.2363,1420.5128205128203,,1,1,1768789938.7922363
1768789938800.0488,1420.5128205128203,,1,1,1768789938.8000488
1768789938807.861,1416.8498168498168,,1,1,1768789938.807861
1768789938815.6738,1411.7216117216117,,1,1,1768789938.8156738
1768789938823.4863,1404.3956043956043,,1,1,1768789938.8234863
1768789938831.2988,1394.8717948717947,,1,1,1768789938.8312988
1768789938839.111,1385.3479853479853,,1,1,1768789938.839111
1768789938846.9238,1378.7545787545787,,1,1,1768789938.8469238
1768789938854.7363,1380.952380952381,,1,1,1768789938.8547363
1768789938862.5488,1386.080586080586,,1,1,1768789938.8625488
1768789938870.361,1391.2087912087911,,1,1,1768789938.870361
1768789938878.1738,1392.6739926739926,,1,1,1768789938.8781738
1768789938885.9863,1391.941391941392,,1,1,1768789938.8859863
1768789938893.7988,1388.278388278388,,1,1,1768789938.8937988
1768789938901.611,1386.080586080586,,1,1,1768789938.901611
1768789938909.4238,1385.3479853479853,,1,1,1768789938.9094238
1768789938917.2363,1384.6153846153843,,1,1,1768789938.9172363
1768789938925.0488,1380.2197802197802,,1,1,1768789938.9250488
1768789938932.861,1376.5567765567764,,1,1,1768789938.932861
1768789938940.6738,1369.9633699633698,,1,1,1768789938.9406738
1768789938948.4863,1362.6373626373625,,1,1,1768789938.9484863
1768789938956.2988,1359.7069597069597,,1,1,1768789938.9562988
1768789938964.111,1359.7069597069597,,1,1,1768789938.964111
1768789938971.9238,1364.102564102564,,1,1,1768789938.9719238
1768789938979.7363,1369.9633699633698,,1,1,1768789938.9797363
1768789938987.5488,1374.3589743589744,,1,1,1768789938.9875488
1768789938995.361,1374.3589743589744,,1,1,1768789938.995361
1768789939003.1738,1372.8937728937728,,1,1,1768789939.0031738
1768789939010.9863,1369.230769230769,,1,1,1768789939.0109863
1768789939018.7988,1361.1721611721612,,1,1,1768789939.0187988
1768789939026.611,1350.18315018315,,1,1,1768789939.026611
1768789939034.4238,1339.194139194139,,1,1,1768789939.0344238
1768789939042.2363,1331.8681318681315,,1,1,1768789939.0422363
1768789939050.0488,1327.4725274725274,,1,1,1768789939.0500488
1768789939057.861,1323.076923076923,,1,1,1768789939.057861
1768789939065.6738,1317.216117216117,,1,1,1768789939.0656738
1768789939073.4863,1309.89010989011,,1,1,1768789939.0734863
1768789939081.2988,1301.8315018315018,,1,1,1768789939.0812988
1768789939089.111,1297.4358974358977,,1,1,1768789939.089111
1768789939096.9238,1296.7032967032967,,1,1,1768789939.0969238
1768789939104.7363,1293.040293040293,,1,1,1768789939.1047363
1768789939112.5488,1289.3772893772891,,1,1,1768789939.1125488
1768789939120.361,1282.7838827838827,,1,1,1768789939.120361
1768789939128.1738,1273.260073260073,,1,1,1768789939.1281738
1768789939135.9863,1268.131868131868,,1,1,1768789939.1359863
1768789939143.7988,1263.003663003663,,1,1,1768789939.1437988
1768789939151.611,1263.003663003663,,1,1,1768789939.151611
1768789939159.4238,1266.6666666666663,,1,1,1768789939.1594238
1768789939167.2363,1268.8644688644688,,1,1,1768789939.1672363
1768789939175.0488,1272.5274725274724,,1,1,1768789939.1750488
1768789939182.861,1269.5970695970695,,1,1,1768789939.182861
1768789939190.6738,1268.131868131868,,1,1,1768789939.1906738
1768789939198.4863,1265.2014652014652,,1,1,1768789939.1984863
1768789939206.2988,1260.805860805861,,1,1,1768789939.2062988
1768789939214.111,1261.5384615384614,,1,1,1768789939.214111
1768789939221.9238,1259.3406593406592,,1,1,1768789939.2219238
1768789939229.7363,1260.07326007326,,1,1,1768789939.2297363
1768789939237.5488,1254.9450549450548,,1,1,1768789939.2375488
1768789939245.361,1249.084249084249,,1,1,1768789939.245361
1768789939253.1738,1251.2820512820513,,1,1,1768789939.2531738
1768789939260.9863,1254.9450549450548,,1,1,1768789939.2609863
1768789939268.7988,1263.7362637362637,,1,1,1768789939.2687988
1768789939276.611,1276.923076923077,,1,1,1768789939.276611
1768789939284.4238,1295.970695970696,,1,1,1768789939.2844238
1768789939292.2363,1314.2857142857142,,1,1,1768789939.2922363
1768789939300.0488,1340.6593406593406,,1,1,1768789939.3000488
1768789939307.861,1362.6373626373625,,1,1,1768789939.307861
1768789939315.6738,1383.150183150183,,1,1,1768789939.3156738
1768789939323.4863,1403.6630036630036,,1,1,1768789939.3234863
1768789939331.2988,1419.7802197802198,,1,1,1768789939.3312988
1768789939339.111,1435.164835164835,,1,1,1768789939.339111
1768789939346.9238,1446.153846153846,,1,1,1768789939.3469238
1768789939354.7363,1457.142857142857,,1,1,1768789939.3547363
1768789939362.5488,1463.7362637362637,,1,1,1768789939.3625488
1768789939370.361,1472.5274725274724,,1,1,1768789939.370361
1768789939378.1738,1478.3882783882782,,1,1,1768789939.3781738
1768789939385.9863,1490.10989010989,,1,1,1768789939.3859863
1768789939393.7988,1495.2380952380952,,1,1,1768789939.3937988
1768789939401.611,1496.7032967032967,,1,1,1768789939.401611
1768789939409.4238,1490.8424908424906,,1,1,1768789939.4094238
1768789939417.2363,1487.179487179487,,1,1,1768789939.4172363
1768789939425.0488,1482.7838827838827,,1,1,1768789939.4250488
1768789939432.861,1486.4468864468863,,1,1,1768789939.432861
1768789939440.6738,1487.9120879120878,,1,1,1768789939.4406738
1768789939448.4863,1492.3076923076922,,1,1,1768789939.4484863
1768789939456.2988,1495.970695970696,,1,1,1768789939.4562988
1768789939464.111,1501.8315018315018,,1,1,1768789939.464111
1768789939471.9238,1501.8315018315018,,1,1,1768789939.4719238
1768789939479.7363,1501.8315018315018,,1,1,1768789939.4797363
1768789939487.5488,1495.970695970696,,1,1,1768789939.4875488
1768789939495.361,1482.7838827838827,,1,1,1768789939.495361
1768789939503.1738,1465.9340659340658,,1,1,1768789939.5031738
1768789939510.9863,1442.4908424908424,,1,1,1768789939.5109863
1768789939518.7988,1427.106227106227,,1,1,1768789939.5187988
1768789939526.611,1413.9194139194135,,1,1,1768789939.526611
1768789939534.4238,1406.5934065934066,,1,1,1768789939.5344238
1768789939542.2363,1402.9304029304028,,1,1,1768789939.5422363
1768789939550.0488,1402.197802197802,,1,1,1768789939.5500488
1768789939557.861,1402.197802197802,,1,1,1768789939.557861
1768789939565.6738,1407.3260073260071,,1,1,1768789939.5656738
1768789939573.4863,1410.989010989011,,1,1,1768789939.5734863
1768789939581.2988,1419.7802197802198,,1,1,1768789939.5812988
1768789939589.111,1423.4432234432234,,1,1,1768789939.589111
1768789939596.9238,1432.2344322344322,,1,1,1768789939.5969238
1768789939604.7363,1435.164835164835,,1,1,1768789939.6047363
1768789939612.5488,1438.8278388278388,,0,-1,1768789939.6125488
1768789939620.361,1433.6996336996335,,0,-1,1768789939.620361
1768789939628.1738,1423.4432234432234,,0,-1,1768789939.6281738
1768789939635.9863,1410.989010989011,,0,-1,1768789939.6359863
1768789939643.7988,1394.139194139194,,0,-1,1768789939.6437988
1768789939651.611,1379.4871794871794,,0,-1,1768789939.651611
1768789939659.4238,1369.9633699633698,,0,-1,1768789939.6594238
1768789939667.2363,1360.4395604395604,,0,-1,1768789939.6672363
1768789939675.0488,1357.5091575091574,,0,-1,1768789939.6750488
1768789939682.861,1350.9157509157508,,0,-1,1768789939.682861
1768789939690.6738,1350.18315018315,,0,-1,1768789939.6906738
1768789939698.4863,1343.5897435897434,,0,-1,1768789939.6984863
1768789939706.2988,1342.124542124542,,0,-1,1768789939.7062988
1768789939714.111,1336.9963369963368,,0,-1,1768789939.714111
1768789939721.9238,1338.4615384615383,,0,-1,1768789939.7219238
1768789939729.7363,1337.7289377289376,,0,-1,1768789939.7297363
1768789939737.5488,1344.3223443223442,,0,-1,1768789939.7375488
1768789939745.361,1352.3809523809523,,0,-1,1768789939.745361
1768789939753.1738,1361.1721611721612,,0,-1,1768789939.7531738
1768789939760.9863,1370.6959706959706,,0,-1,1768789939.7609863
1768789939768.7988,1371.428571428571,,0,-1,1768789939.7687988
1768789939776.611,1368.4981684981683,,0,-1,1768789939.776611
1768789939784.4238,1367.7655677655678,,0,-1,1768789939.7844238
1768789939792.2363,1361.904761904762,,0,-1,1768789939.7922363
1768789939800.0488,1362.6373626373625,,0,-1,1768789939.8000488
1768789939807.861,1360.4395604395604,,0,-1,1768789939.807861
1768789939815.6738,1358.241758241758,,0,-1,1768789939.8156738
1768789939823.4863,1358.974358974359,,0,-1,1768789939.8234863
1768789939831.2988,1357.5091575091574,,0,-1,1768789939.8312988
1768789939839.111,1349.4505494505493,,0,-1,1768789939.839111
1768789939846.9238,1342.857142857143,,0,-1,1768789939.8469238
1768789939854.7363,1335.5311355311355,,0,-1,1768789939.8547363
1768789939862.5488,1323.076923076923,,0,-1,1768789939.8625488
1768789939870.361,1314.2857142857142,,0,-1,1768789939.870361
1768789939878.1738,1306.9597069597069,,0,-1,1768789939.8781738
1768789939885.9863,1294.5054945054944,,0,-1,1768789939.8859863
1768789939893.7988,1287.179487179487,,0,-1,1768789939.8937988
1768789939901.611,1283.5164835164835,,0,-1,1768789939.901611
1768789939909.4238,1280.5860805860805,,0,-1,1768789939.9094238
1768789939917.2363,1276.923076923077,,0,-1,1768789939.9172363
1768789939925.0488,1276.923076923077,,0,-1,1768789939.9250488
1768789939932.861,1271.7948717948716,,0,-1,1768789939.932861
1768789939940.6738,1265.2014652014652,,0,-1,1768789939.9406738
1768789939948.4863,1260.07326007326,,0,-1,1768789939.9484863
1768789939956.2988,1245.4212454212454,,0,-1,1768789939.9562988
1768789939964.111,1231.5018315018317,,0,-1,1768789939.964111
1768789939971.9238,1224.175824175824,,0,-1,1768789939.9719238
1768789939979.7363,1216.8498168498168,,0,-1,1768789939.9797363
1768789939987.5488,1213.9194139194135,,0,-1,1768789939.9875488
1768789939995.361,1215.3846153846152,,0,-1,1768789939.995361
1768789940003.1738,1219.7802197802198,,0,-1,1768789940.0031738
1768789940010.9863,1226.3736263736264,,0,-1,1768789940.0109863
1768789940018.7988,1238.8278388278388,,0,-1,1768789940.0187988
1768789940026.611,1258.6080586080586,,0,-1,1768789940.026611
1768789940034.4238,1278.3882783882782,,0,-1,1768789940.0344238
1768789940042.2363,1298.9010989010987,,0,-1,1768789940.0422363
1768789940050.0488,1320.8791208791208,,0,-1,1768789940.0500488
1768789940057.861,1342.857142857143,,0,-1,1768789940.057861
1768789940065.6738,1364.102564102564,,0,-1,1768789940.0656738
1768789940073.4863,1380.2197802197802,,0,-1,1768789940.0734863
1768789940081.2988,1397.8021978021975,,0,-1,1768789940.0812988
1768789940089.111,1414.6520146520145,,0,-1,1768789940.089111
1768789940096.9238,1431.5018315018317,,0,-1,1768789940.0969238
1768789940104.7363,1446.8864468864467,,0,-1,1768789940.1047363
1768789940112.5488,1460.805860805861,,0,-1,1768789940.1125488
1768789940120.361,1475.4578754578754,,0,-1,1768789940.120361
1768789940128.1738,1488.6446886446886,,0,-1,1768789940.1281738
1768789940135.9863,1499.6336996336995,,0,-1,1768789940.1359863
1768789940143.7988,1506.9597069597069,,0,-1,1768789940.1437988
1768789940151.611,1512.8205128205127,,0,-1,1768789940.151611
1768789940159.4238,1514.2857142857142,,0,-1,1768789940.1594238
1768789940167.2363,1519.4139194139193,,0,-1,1768789940.1672363
1768789940175.0488,1525.2747252747251,,0,-1,1768789940.1750488
1768789940182.861,1531.135531135531,,0,-1,1768789940.182861
1768789940190.6738,1535.5311355311355,,0,-1,1768789940.1906738
1768789940198.4863,1536.9963369963368,,0,-1,1768789940.1984863
1768789940206.2988,1537.7289377289376,,0,-1,1768789940.2062988
1768789940214.111,1535.5311355311355,,0,-1,1768789940.214111
1768789940221.9238,1528.937728937729,,0,-1,1768789940.2219238
1768789940229.7363,1519.4139194139193,,0,-1,1768789940.2297363
1768789940237.5488,1508.4249084249084,,0,-1,1768789940.2375488
1768789940245.361,1499.6336996336995,,0,-1,1768789940.245361
1768789940253.1738,1490.8424908424906,,0,-1,1768789940.2531738
1768789940260.9863,1480.5860805860805,,0,-1,1768789940.2609863
1768789940268.7988,1473.260073260073,,0,-1,1768789940.2687988
1768789940276.611,1468.131868131868,,0,-1,1768789940.276611
1768789940284.4238,1465.9340659340658,,0,-1,1768789940.2844238
1768789940292.2363,1465.201465201465,,0,-1,1768789940.2922363
1768789940300.0488,1463.7362637362637,,0,-1,1768789940.3000488
1768789940307.861,1460.805860805861,,0,-1,1768789940.307861
1768789940315.6738,1456.4102564102564,,0,-1,1768789940.3156738
1768789940323.4863,1453.479853479853,,0,-1,1768789940.3234863
1768789940331.2988,1449.084249084249,,0,-1,1768789940.3312988
1768789940339.111,1448.3516483516482,,0,-1,1768789940.339111
1768789940346.9238,1443.2234432234432,,0,-1,1768789940.3469238
1768789940354.7363,1432.2344322344322,,0,-1,1768789940.3547363
1768789940362.5488,1419.7802197802198,,0,-1,1768789940.3625488
1768789940370.361,1409.5238095238094,,0,-1,1768789940.370361
1768789940378.1738,1400.7326007326003,,0,-1,1768789940.3781738
1768789940385.9863,1392.6739926739926,,0,-1,1768789940.3859863
1768789940393.7988,1388.278388278388,,0,-1,1768789940.3937988
1768789940401.611,1386.8131868131868,,0,-1,1768789940.401611
1768789940409.4238,1386.080586080586,,0,-1,1768789940.4094238
1768789940417.2363,1388.278388278388,,0,-1,1768789940.4172363
1768789940425.0488,1392.6739926739926,,0,-1,1768789940.4250488
1768789940432.861,1395.6043956043954,,0,-1,1768789940.432861
1768789940440.6738,1400.7326007326003,,0,-1,1768789940.4406738
1768789940448.4863,1403.6630036630036,,0,-1,1768789940.4484863
1768789940456.2988,1405.8608058608058,,0,-1,1768789940.4562988
1768789940464.111,1405.128205128205,,0,-1,1768789940.464111
1768789940471.9238,1402.9304029304028,,0,-1,1768789940.4719238
1768789940479.7363,1402.9304029304028,,0,-1,1768789940.4797363
1768789940487.5488,1400.0,,0,-1,1768789940.4875488
1768789940495.361,1395.6043956043954,,0,-1,1768789940.495361
1768789940503.1738,1386.080586080586,,0,-1,1768789940.5031738
1768789940510.9863,1375.091575091575,,0,-1,1768789940.5109863
1768789940518.7988,1364.8351648351647,,0,-1,1768789940.5187988
1768789940526.611,1356.043956043956,,0,-1,1768789940.526611
1768789940534.4238,1348.7179487179487,,0,-1,1768789940.5344238
1768789940542.2363,1344.3223443223442,,0,-1,1768789940.5422363
1768789940550.0488,1339.194139194139,,0,-1,1768789940.5500488
1768789940557.861,1333.3333333333333,,0,-1,1768789940.557861
1768789940565.6738,1326.739926739927,,0,-1,1768789940.5656738
1768789940573.4863,1317.9487179487178,,0,-1,1768789940.5734863
1768789940581.2988,1308.4249084249084,,0,-1,1768789940.5812988
1768789940589.111,1300.3663003663005,,0,-1,1768789940.589111
1768789940596.9238,1294.5054945054944,,0,-1,1768789940.5969238
1768789940604.7363,1293.7728937728937,,0,-1,1768789940.6047363
1768789940612.5488,1295.970695970696,,0,-1,1768789940.6125488
1768789940620.361,1296.7032967032967,,0,-1,1768789940.620361
1768789940628.1738,1298.9010989010987,,0,-1,1768789940.6281738
1768789940635.9863,1298.168498168498,,0,-1,1768789940.6359863
1768789940643.7988,1297.4358974358977,,0,-1,1768789940.6437988
1768789940651.611,1290.8424908424909,,0,-1,1768789940.651611
1768789940659.4238,1284.2490842490845,,0,-1,1768789940.6594238
1768789940667.2363,1276.923076923077,,0,-1,1768789940.6672363
1768789940675.0488,1272.5274725274724,,0,-1,1768789940.6750488
1768789940682.861,1274.7252747252746,,0,-1,1768789940.682861
1768789940690.6738,1279.8534798534797,,0,-1,1768789940.6906738
1768789940698.4863,1285.7142857142856,,0,-1,1768789940.6984863
1768789940706.2988,1292.3076923076922,,0,-1,1768789940.7062988
1768789940714.111,1299.6336996336995,,0,-1,1768789940.714111
1768789940721.9238,1301.098901098901,,0,-1,1768789940.7219238
1768789940729.7363,1304.7619047619046,,0,-1,1768789940.7297363
1768789940737.5488,1304.7619047619046,,0,-1,1768789940.7375488
1768789940745.361,1306.227106227106,,0,-1,1768789940.745361
1768789940753.1738,1306.227106227106,,0,-1,1768789940.7531738
1768789940760.9863,1310.6227106227104,,0,-1,1768789940.7609863
1768789940768.7988,1315.018315018315,,0,-1,1768789940.7687988
1768789940776.611,1322.3443223443223,,0,-1,1768789940.776611
1768789940784.4238,1329.6703296703297,,0,-1,1768789940.7844238
1768789940792.2363,1339.194139194139,,0,-1,1768789940.7922363
1768789940800.0488,1348.7179487179487,,0,-1,1768789940.8000488
1768789940807.861,1362.6373626373625,,0,-1,1768789940.807861
1768789940815.6738,1378.7545787545787,,0,-1,1768789940.8156738
1768789940823.4863,1396.3369963369962,,0,-1,1768789940.8234863
1768789940831.2988,1416.117216117216,,0,-1,1768789940.8312988
1768789940839.111,1438.095238095238,,0,-1,1768789940.839111
1768789940846.9238,1461.5384615384614,,0,-1,1768789940.8469238
1768789940854.7363,1483.5164835164835,,0,-1,1768789940.8547363
1768789940862.5488,1503.2967032967033,,0,-1,1768789940.8625488
1768789940870.361,1517.9487179487178,,0,-1,1768789940.870361
1768789940878.1738,1526.739926739927,,0,-1,1768789940.8781738
1768789940885.9863,1530.4029304029302,,0,-1,1768789940.8859863
1768789940893.7988,1531.135531135531,,0,-1,1768789940.8937988
1768789940901.611,1528.937728937729,,0,-1,1768789940.901611
1768789940909.4238,1526.007326007326,,0,-1,1768789940.9094238
1768789940917.2363,1523.8095238095236,,0,-1,1768789940.9172363
1768789940925.0488,1523.0769230769229,,0,-1,1768789940.9250488
1768789940932.861,1526.007326007326,,0,-1,1768789940.932861
1768789940940.6738,1530.4029304029302,,0,-1,1768789940.9406738
1768789940948.4863,1538.4615384615383,,0,-1,1768789940.9484863
1768789940956.2988,1548.7179487179485,,0,-1,1768789940.9562988
1768789940964.111,1553.113553113553,,0,-1,1768789940.964111
1768789940971.9238,1549.4505494505493,,0,-1,1768789940.9719238
1768789940979.7363,1536.9963369963368,,0,-1,1768789940.9797363
1768789940987.5488,1523.0769230769229,,0,-1,1768789940.9875488
1768789940995.361,1509.1575091575091,,0,-1,1768789940.995361
1768789941003.1738,1497.4358974358972,,0,-1,1768789941.0031738
1768789941010.9863,1488.6446886446886,,0,-1,1768789941.0109863
1768789941018.7988,1482.7838827838827,,0,-1,1768789941.0187988
1768789941026.611,1484.2490842490845,,0,-1,1768789941.026611
1768789941034.4238,1486.4468864468863,,0,-1,1768789941.0344238
1768789941042.2363,1487.9120879120878,,0,-1,1768789941.0422363
1768789941050.0488,1491.5750915750914,,0,-1,1768789941.0500488
1768789941057.861,1493.7728937728937,,0,-1,1768789941.057861
1768789941065.6738,1494.5054945054944,,0,-1,1768789941.0656738
1768789941073.4863,1495.2380952380952,,0,-1,1768789941.0734863
1768789941081.2988,1493.7728937728937,,0,-1,1768789941.0812988
1768789941089.111,1490.10989010989,,0,-1,1768789941.089111
1768789941096.9238,1487.179487179487,,0,-1,1768789941.0969238
1768789941104.7363,1485.7142857142856,,0,-1,1768789941.1047363
1768789941112.5488,1478.3882783882782,,0,-1,1768789941.1125488
1768789941120.361,1466.6666666666663,,0,-1,1768789941.120361
1768789941128.1738,1456.4102564102564,,0,-1,1768789941.1281738
1768789941135.9863,1449.084249084249,,0,-1,1768789941.1359863
1768789941143.7988,1446.153846153846,,0,-1,1768789941.1437988
1768789941151.611,1441.7582417582416,,0,-1,1768789941.151611
1768789941159.4238,1435.164835164835,,0,-1,1768789941.1594238
1768789941167.2363,1433.6996336996335,,0,-1,1768789941.1672363
1768789941175.0488,1427.8388278388277,,0,-1,1768789941.1750488
1768789941182.861,1421.9780219780218,,0,-1,1768789941.182861
1768789941190.6738,1416.117216117216,,0,-1,1768789941.1906738
1768789941198.4863,1408.7912087912086,,0,-1,1768789941.1984863
1768789941206.2988,1397.8021978021975,,0,-1,1768789941.2062988
1768789941214.111,1393.4065934065934,,0,-1,1768789941.214111
1768789941221.9238,1389.0109890109889,,0,-1,1768789941.2219238
1768789941229.7363,1385.3479853479853,,0,-1,1768789941.2297363
1768789941237.5488,1386.8131868131868,,0,-1,1768789941.2375488
1768789941245.361,1381.6849816849815,,0,-1,1768789941.245361
1768789941253.1738,1379.4871794871794,,0,-1,1768789941.2531738
1768789941260.9863,1375.8241758241757,,0,-1,1768789941.2609863
1768789941268.7988,1369.9633699633698,,0,-1,1768789941.2687988
1768789941276.611,1366.3003663003662,,0,-1,1768789941.276611
1768789941284.4238,1358.241758241758,,0,-1,1768789941.2844238
1768789941292.2363,1350.18315018315,,0,-1,1768789941.2922363
1768789941300.0488,1345.7875457875457,,0,-1,1768789941.3000488
1768789941307.861,1343.5897435897434,,0,-1,1768789941.307861
1768789941315.6738,1337.7289377289376,,0,-1,1768789941.3156738
1768789941323.4863,1333.3333333333333,,0,-1,1768789941.3234863
1768789941331.2988,1333.3333333333333,,0,-1,1768789941.3312988
1768789941339.111,1333.3333333333333,,0,-1,1768789941.339111
1768789941346.9238,1333.3333333333333,,0,-1,1768789941.3469238
1768789941354.7363,1328.937728937729,,0,-1,1768789941.3547363
1768789941362.5488,1328.937728937729,,0,-1,1768789941.3625488
1768789941370.361,1323.8095238095236,,0,-1,1768789941.370361
1768789941378.1738,1321.6117216117216,,0,-1,1768789941.3781738
1768789941385.9863,1316.4835164835165,,0,-1,1768789941.3859863
1768789941393.7988,1315.7509157509155,,0,-1,1768789941.3937988
1768789941401.611,1313.5531135531137,,0,-1,1768789941.401611
1768789941409.4238,1307.6923076923076,,0,-1,1768789941.4094238
1768789941417.2363,1301.8315018315018,,0,-1,1768789941.4172363
1768789941425.0488,1296.7032967032967,,0,-1,1768789941.4250488
1768789941432.861,1286.4468864468863,,0,-1,1768789941.432861
1768789941440.6738,1282.051282051282,,0,-1,1768789941.4406738
1768789941448.4863,1284.2490842490845,,0,-1,1768789941.4484863
1768789941456.2988,1282.051282051282,,0,-1,1768789941.4562988
1768789941464.111,1284.2490842490845,,0,-1,1768789941.464111
1768789941471.9238,1286.4468864468863,,0,-1,1768789941.4719238
1768789941479.7363,1287.9120879120878,,0,-1,1768789941.4797363
1768789941487.5488,1288.6446886446886,,0,-1,1768789941.4875488
1768789941495.361,1286.4468864468863,,0,-1,1768789941.495361
1768789941503.1738,1289.3772893772891,,0,-1,1768789941.5031738
1768789941510.9863,1291.5750915750914,,0,-1,1768789941.5109863
1768789941518.7988,1295.2380952380952,,0,-1,1768789941.5187988
1768789941526.611,1295.970695970696,,0,-1,1768789941.526611
1768789941534.4238,1301.098901098901,,0,-1,1768789941.5344238
1768789941542.2363,1309.89010989011,,0,-1,1768789941.5422363
1768789941550.0488,1319.4139194139193,,0,-1,1768789941.5500488
1768789941557.861,1332.6007326007325,,0,-1,1768789941.557861
1768789941565.6738,1347.2527472527472,,0,-1,1768789941.5656738
1768789941573.4863,1366.3003663003662,,0,-1,1768789941.5734863
1768789941581.2988,1384.6153846153843,,0,-1,1768789941.5812988
1768789941589.111,1402.197802197802,,0,-1,1768789941.589111
1768789941596.9238,1419.047619047619,,0,-1,1768789941.5969238
1768789941604.7363,1436.6300366300366,,0,-1,1768789941.6047363
1768789941612.5488,1454.9450549450548,,0,-1,1768789941.6125488
1768789941620.361,1470.3296703296703,,0,-1,1768789941.620361
1768789941628.1738,1482.051282051282,,0,-1,1768789941.6281738
1768789941635.9863,1491.5750915750914,,0,-1,1768789941.6359863
1768789941643.7988,1501.8315018315018,,0,-1,1768789941.6437988
1768789941651.611,1509.89010989011,,0,-1,1768789941.651611
1768789941659.4238,1519.4139194139193,,0,-1,1768789941.6594238
1768789941667.2363,1525.2747252747251,,0,-1,1768789941.6672363
1768789941675.0488,1526.739926739927,,0,-1,1768789941.6750488
1768789941682.861,1528.2051282051282,,0,-1,1768789941.682861
1768789941690.6738,1523.0769230769229,,0,-1,1768789941.6906738
1768789941698.4863,1523.8095238095236,,0,-1,1768789941.6984863
1768789941706.2988,1521.6117216117216,,0,-1,1768789941.7062988
1768789941714.111,1520.8791208791208,,0,-1,1768789941.714111
1768789941721.9238,1518.6813186813183,,0,-1,1768789941.7219238
1768789941729.7363,1517.9487179487178,,0,-1,1768789941.7297363
1768789941737.5488,1510.6227106227104,,0,-1,1768789941.7375488
1768789941745.361,1506.9597069597069,,0,-1,1768789941.745361
1768789941753.1738,1499.6336996336995,,0,-1,1768789941.7531738
1768789941760.9863,1500.3663003663005,,0,-1,1768789941.7609863
1768789941768.7988,1495.970695970696,,0,-1,1768789941.7687988
1768789941776.611,1494.5054945054944,,0,-1,1768789941.776611
1768789941784.4238,1487.179487179487,,0,-1,1768789941.7844238
1768789941792.2363,1486.4468864468863,,0,-1,1768789941.7922363
1768789941800.0488,1484.2490842490845,,0,-1,1768789941.8000488
1768789941807.861,1487.179487179487,,0,-1,1768789941.807861
1768789941815.6738,1484.9816849816848,,0,-1,1768789941.8156738
1768789941823.4863,1481.3186813186812,,0,-1,1768789941.8234863
1768789941831.2988,1476.923076923077,,0,-1,1768789941.8312988
1768789941839.111,1469.5970695970695,,0,-1,1768789941.839111
1768789941846.9238,1466.6666666666663,,0,-1,1768789941.8469238
1768789941854.7363,1463.003663003663,,0,-1,1768789941.8547363
1768789941862.5488,1462.2710622710622,,0,-1,1768789941.8625488
1768789941870.361,1459.3406593406592,,0,-1,1768789941.870361
1768789941878.1738,1455.6776556776556,,0,-1,1768789941.8781738
1768789941885.9863,1449.8168498168498,,0,-1,1768789941.8859863
1768789941893.7988,1446.8864468864467,,0,-1,1768789941.8937988
1768789941901.611,1442.4908424908424,,0,-1,1768789941.901611
1768789941909.4238,1435.8974358974358,,0,-1,1768789941.9094238
1768789941917.2363,1429.3040293040292,,0,-1,1768789941.9172363
1768789941925.0488,1417.5824175824175,,0,-1,1768789941.9250488
1768789941932.861,1411.7216117216117,,0,-1,1768789941.932861
1768789941940.6738,1405.128205128205,,0,-1,1768789941.9406738
1768789941948.4863,1396.3369963369962,,0,-1,1768789941.9484863
1768789941956.2988,1391.941391941392,,0,-1,1768789941.9562988
1768789941964.111,1389.7435897435896,,0,-1,1768789941.964111
1768789941971.9238,1384.6153846153843,,0,-1,1768789941.9719238
1768789941979.7363,1380.952380952381,,0,-1,1768789941.9797363
1768789941987.5488,1369.230769230769,,0,-1,1768789941.9875488
1768789941995.361,1360.4395604395604,,0,-1,1768789941.995361
1768789942003.1738,1350.18315018315,,0,-1,1768789942.0031738
1768789942010.9863,1345.054945054945,,0,-1,1768789942.0109863
1768789942018.7988,1336.9963369963368,,0,-1,1768789942.0187988
1768789942026.611,1335.5311355311355,,0,-1,1768789942.026611
1768789942034.4238,1332.6007326007325,,0,-1,1768789942.0344238
1768789942042.2363,1336.9963369963368,,0,-1,1768789942.0422363
1768789942050.0488,1340.6593406593406,,0,-1,1768789942.0500488
1768789942057.861,1347.985347985348,,0,-1,1768789942.057861
1768789942065.6738,1350.9157509157508,,0,-1,1768789942.0656738
1768789942073.4863,1353.8461538461538,,0,-1,1768789942.0734863
1768789942081.2988,1357.5091575091574,,0,-1,1768789942.0812988
1768789942089.111,1356.043956043956,,0,-1,1768789942.089111
1768789942096.9238,1355.311355311355,,0,-1,1768789942.0969238
1768789942104.7363,1351.6483516483515,,0,-1,1768789942.1047363
1768789942112.5488,1343.5897435897434,,0,-1,1768789942.1125488
1768789942120.361,1336.9963369963368,,0,-1,1768789942.120361
1768789942128.1738,1330.4029304029302,,0,-1,1768789942.1281738
1768789942135.9863,1323.8095238095236,,0,-1,1768789942.1359863
1768789942143.7988,1322.3443223443223,,0,-1,1768789942.1437988
1768789942151.611,1327.4725274725274,,0,-1,1768789942.151611
1768789942159.4238,1328.937728937729,,0,-1,1768789942.1594238
1768789942167.2363,1330.4029304029302,,0,-1,1768789942.1672363
1768789942175.0488,1333.3333333333333,,0,-1,1768789942.1750488
1768789942182.861,1333.3333333333333,,0,-1,1768789942.182861
1768789942190.6738,1327.4725274725274,,0,-1,1768789942.1906738
1768789942198.4863,1322.3443223443223,,0,-1,1768789942.1984863
1768789942206.2988,1306.227106227106,,0,-1,1768789942.2062988
1768789942214.111,1292.3076923076922,,0,-1,1768789942.214111
1768789942221.9238,1275.4578754578754,,0,-1,1768789942.2219238
1768789942229.7363,1261.5384615384614,,0,-1,1768789942.2297363
1768789942237.5488,1252.7472527472526,,0,-1,1768789942.2375488
1768789942245.361,1247.6190476190477,,0,-1,1768789942.245361
1768789942253.1738,1244.688644688645,,0,-1,1768789942.2531738
1768789942260.9863,1249.8168498168498,,0,-1,1768789942.2609863
1768789942268.7988,1257.142857142857,,0,-1,1768789942.2687988
1768789942276.611,1263.003663003663,,0,-1,1768789942.276611
1768789942284.4238,1268.131868131868,,0,-1,1768789942.2844238
1768789942292.2363,1270.3296703296703,,0,-1,1768789942.2922363
1768789942300.0488,1270.3296703296703,,0,-1,1768789942.3000488
1768789942307.861,1270.3296703296703,,0,-1,1768789942.307861
1768789942315.6738,1268.8644688644688,,0,-1,1768789942.3156738
1768789942323.4863,1269.5970695970695,,0,-1,1768789942.3234863
1768789942331.2988,1273.992673992674,,0,-1,1768789942.3312988
1768789942339.111,1283.5164835164835,,0,-1,1768789942.339111
1768789942346.9238,1296.7032967032967,,0,-1,1768789942.3469238
1768789942354.7363,1307.6923076923076,,0,-1,1768789942.3547363
1768789942362.5488,1317.9487179487178,,0,-1,1768789942.3625488
1768789942370.361,1331.135531135531,,0,-1,1768789942.370361
1768789942378.1738,1347.2527472527472,,0,-1,1768789942.3781738
1768789942385.9863,1359.7069597069597,,0,-1,1768789942.3859863
1768789942393.7988,1373.6263736263736,,0,-1,1768789942.3937988
1768789942401.611,1386.8131868131868,,0,-1,1768789942.401611
1768789942409.4238,1401.4652014652013,,0,-1,1768789942.4094238
1768789942417.2363,1417.5824175824175,,0,-1,1768789942.4172363
1768789942425.0488,1435.164835164835,,0,-1,1768789942.4250488
1768789942432.861,1448.3516483516482,,0,-1,1768789942.432861
1768789942440.6738,1461.5384615384614,,0,-1,1768789942.4406738
1768789942448.4863,1470.3296703296703,,0,-1,1768789942.4484863
1768789942456.2988,1479.120879120879,,0,-1,1768789942.4562988
1768789942464.111,1485.7142857142856,,0,-1,1768789942.464111
1768789942471.9238,1487.9120879120878,,0,-1,1768789942.4719238
1768789942479.7363,1485.7142857142856,,0,-1,1768789942.4797363
1768789942487.5488,1484.9816849816848,,0,-1,1768789942.4875488
1768789942495.361,1487.179487179487,,0,-1,1768789942.495361
1768789942503.1738,1489.3772893772891,,0,-1,1768789942.5031738
1768789942510.9863,1491.5750915750914,,0,-1,1768789942.5109863
1768789942518.7988,1492.3076923076922,,0,-1,1768789942.5187988
1768789942526.611,1491.5750915750914,,0,-1,1768789942.526611
1768789942534.4238,1488.6446886446886,,0,-1,1768789942.5344238
1768789942542.2363,1486.4468864468863,,0,-1,1768789942.5422363
1768789942550.0488,1485.7142857142856,,0,-1,1768789942.5500488
1768789942557.861,1484.9816849816848,,0,-1,1768789942.557861
1768789942565.6738,1484.9816849816848,,0,-1,1768789942.5656738
1768789942573.4863,1481.3186813186812,,0,-1,1768789942.5734863
1768789942581.2988,1473.260073260073,,0,-1,1768789942.5812988
1768789942589.111,1463.003663003663,,0,-1,1768789942.589111
1768789942596.9238,1452.014652014652,,0,-1,1768789942.5969238
1768789942604.7363,1443.2234432234432,,0,-1,1768789942.6047363
1768789942612.5488,1435.8974358974358,,0,-1,1768789942.6125488
1768789942620.361,1430.03663003663,,0,-1,1768789942.620361
1768789942628.1738,1426.3736263736262,,0,-1,1768789942.6281738
1768789942635.9863,1421.9780219780218,,0,-1,1768789942.6359863
1768789942643.7988,1419.047619047619,,0,-1,1768789942.6437988
1768789942651.611,1413.1868131868132,,0,-1,1768789942.651611
1768789942659.4238,1408.7912087912086,,0,-1,1768789942.6594238
1768789942667.2363,1405.128205128205,,0,-1,1768789942.6672363
1768789942675.0488,1404.3956043956043,,0,-1,1768789942.6750488
1768789942682.861,1406.5934065934066,,0,-1,1768789942.682861
1768789942690.6738,1410.2564102564102,,0,-1,1768789942.6906738
1768789942698.4863,1414.6520146520145,,0,-1,1768789942.6984863
1768789942706.2988,1417.5824175824175,,0,-1,1768789942.7062988
1768789942714.111,1413.9194139194135,,0,-1,1768789942.714111
1768789942721.9238,1410.989010989011,,0,-1,1768789942.7219238
1768789942729.7363,1410.989010989011,,0,-1,1768789942.7297363
1768789942737.5488,1410.2564102564102,,0,-1,1768789942.7375488
1768789942745.361,1412.4542124542124,,0,-1,1768789942.745361
1768789942753.1738,1409.5238095238094,,0,-1,1768789942.7531738
1768789942760.9863,1404.3956043956043,,0,-1,1768789942.7609863
1768789942768.7988,1397.069597069597,,0,-1,1768789942.7687988
1768789942776.611,1390.4761904761904,,0,-1,1768789942.776611
1768789942784.4238,1386.8131868131868,,0,-1,1768789942.7844238
1768789942792.2363,1383.8827838827838,,0,-1,1768789942.7922363
1768789942800.0488,1384.6153846153843,,0,-1,1768789942.8000488
1768789942807.861,1383.8827838827838,,0,-1,1768789942.807861
1768789942815.6738,1380.952380952381,,0,-1,1768789942.8156738
1768789942823.4863,1376.5567765567764,,0,-1,1768789942.8234863
1768789942831.2988,1371.428571428571,,0,-1,1768789942.8312988
1768789942839.111,1366.3003663003662,,0,-1,1768789942.839111
1768789942846.9238,1364.102564102564,,0,-1,1768789942.8469238
1768789942854.7363,1362.6373626373625,,0,-1,1768789942.8547363
1768789942862.5488,1358.974358974359,,0,-1,1768789942.8625488
1768789942870.361,1356.043956043956,,0,-1,1768789942.870361
1768789942878.1738,1349.4505494505493,,0,-1,1768789942.8781738
1768789942885.9863,1346.5201465201465,,0,-1,1768789942.8859863
1768789942893.7988,1343.5897435897434,,0,-1,1768789942.8937988
1768789942901.611,1342.857142857143,,0,-1,1768789942.901611
1768789942909.4238,1342.857142857143,,0,-1,1768789942.9094238
1768789942917.2363,1339.92673992674,,0,-1,1768789942.9172363
1768789942925.0488,1336.263736263736,,0,-1,1768789942.9250488
1768789942932.861,1331.135531135531,,0,-1,1768789942.932861
1768789942940.6738,1326.007326007326,,0,-1,1768789942.9406738
1768789942948.4863,1319.4139194139193,,0,-1,1768789942.9484863
1768789942956.2988,1318.6813186813183,,0,-1,1768789942.9562988
1768789942964.111,1318.6813186813183,,0,-1,1768789942.964111
1768789942971.9238,1320.14652014652,,0,-1,1768789942.9719238
1768789942979.7363,1322.3443223443223,,0,-1,1768789942.9797363
1768789942987.5488,1325.2747252747251,,0,-1,1768789942.9875488
1768789942995.361,1327.4725274725274,,0,-1,1768789942.995361
1768789943003.1738,1326.739926739927,,0,-1,1768789943.0031738
1768789943010.9863,1326.739926739927,,0,-1,1768789943.0109863
1768789943018.7988,1324.5421245421244,,0,-1,1768789943.0187988
1768789943026.611,1323.076923076923,,0,-1,1768789943.026611
1768789943034.4238,1319.4139194139193,,0,-1,1768789943.0344238
1768789943042.2363,1316.4835164835165,,0,-1,1768789943.0422363
1768789943050.0488,1312.087912087912,,0,-1,1768789943.0500488
1768789943057.861,1302.5641025641023,,0,-1,1768789943.057861
1768789943065.6738,1297.4358974358977,,0,-1,1768789943.0656738
1768789943073.4863,1293.7728937728937,,0,-1,1768789943.0734863
1768789943081.2988,1293.040293040293,,0,-1,1768789943.0812988
1768789943089.111,1290.10989010989,,0,-1,1768789943.089111
1768789943096.9238,1286.4468864468863,,0,-1,1768789943.0969238
1768789943104.7363,1279.8534798534797,,0,-1,1768789943.1047363
1768789943112.5488,1272.5274725274724,,0,-1,1768789943.1125488
1768789943120.361,1272.5274725274724,,0,-1,1768789943.120361
1768789943128.1738,1276.190476190476,,0,-1,1768789943.1281738
1768789943135.9863,1282.051282051282,,0,-1,1768789943.1359863
1768789943143.7988,1285.7142857142856,,0,-1,1768789943.1437988
1768789943151.611,1287.9120879120878,,0,-1,1768789943.151611
1768789943159.4238,1290.10989010989,,0,-1,1768789943.1594238
1768789943167.2363,1295.2380952380952,,0,-1,1768789943.1672363
1768789943175.0488,1303.2967032967033,,0,-1,1768789943.1750488
1768789943182.861,1317.216117216117,,0,-1,1768789943.182861
1768789943190.6738,1328.937728937729,,0,-1,1768789943.1906738
1768789943198.4863,1338.4615384615383,,0,-1,1768789943.1984863
1768789943206.2988,1348.7179487179487,,0,-1,1768789943.2062988
1768789943214.111,1358.974358974359,,0,-1,1768789943.214111
1768789943221.9238,1370.6959706959706,,0,-1,1768789943.2219238
1768789943229.7363,1384.6153846153843,,0,-1,1768789943.2297363
1768789943237.5488,1397.069597069597,,0,-1,1768789943.2375488
1768789943245.361,1408.7912087912086,,0,-1,1768789943.245361
1768789943253.1738,1414.6520146520145,,0,-1,1768789943.2531738
1768789943260.9863,1420.5128205128203,,0,-1,1768789943.2609863
1768789943268.7988,1424.175824175824,,0,-1,1768789943.2687988
1768789943276.611,1426.3736263736262,,0,-1,1768789943.276611
1768789943284.4238,1427.8388278388277,,0,-1,1768789943.2844238
1768789943292.2363,1432.2344322344322,,0,-1,1768789943.2922363
1768789943300.0488,1438.8278388278388,,0,-1,1768789943.3000488
1768789943307.861,1447.6190476190477,,0,-1,1768789943.307861
1768789943315.6738,1456.4102564102564,,0,-1,1768789943.3156738
1768789943323.4863,1465.201465201465,,0,-1,1768789943.3234863
1768789943331.2988,1476.923076923077,,0,-1,1768789943.3312988
1768789943339.111,1485.7142857142856,,0,-1,1768789943.339111
1768789943346.9238,1489.3772893772891,,0,-1,1768789943.3469238
1768789943354.7363,1487.179487179487,,0,-1,1768789943.3547363
1768789943362.5488,1482.7838827838827,,0,-1,1768789943.3625488
1768789943370.361,1479.8534798534797,,0,-1,1768789943.370361
1768789943378.1738,1476.190476190476,,0,-1,1768789943.3781738
1768789943385.9863,1471.7948717948716,,0,-1,1768789943.3859863
1768789943393.7988,1463.7362637362637,,0,-1,1768789943.3937988
1768789943401.611,1459.3406593406592,,0,-1,1768789943.401611
1768789943409.4238,1454.9450549450548,,0,-1,1768789943.4094238
1768789943417.2363,1454.212454212454,,0,-1,1768789943.4172363
1768789943425.0488,1454.9450549450548,,0,-1,1768789943.4250488
1768789943432.861,1453.479853479853,,0,-1,1768789943.432861
1768789943440.6738,1453.479853479853,,0,-1,1768789943.4406738
1768789943448.4863,1449.8168498168498,,0,-1,1768789943.4484863
1768789943456.2988,1442.4908424908424,,0,-1,1768789943.4562988
1768789943464.111,1433.6996336996335,,0,-1,1768789943.464111
1768789943471.9238,1426.3736263736262,,0,-1,1768789943.4719238
1768789943479.7363,1419.7802197802198,,0,-1,1768789943.4797363
1768789943487.5488,1413.1868131868132,,0,-1,1768789943.4875488
1768789943495.361,1406.5934065934066,,0,-1,1768789943.495361
1768789943503.1738,1398.5347985347985,,0,-1,1768789943.5031738
1768789943510.9863,1393.4065934065934,,0,-1,1768789943.5109863
1768789943518.7988,1386.080586080586,,0,-1,1768789943.5187988
1768789943526.611,1377.2893772893772,,0,-1,1768789943.526611
1768789943534.4238,1366.3003663003662,,0,-1,1768789943.5344238
1768789943542.2363,1356.043956043956,,0,-1,1768789943.5422363
1768789943550.0488,1349.4505494505493,,0,-1,1768789943.5500488
1768789943557.861,1345.054945054945,,0,-1,1768789943.557861
1768789943565.6738,1345.7875457875457,,0,-1,1768789943.5656738
1768789943573.4863,1350.9157509157508,,0,-1,1768789943.5734863
1768789943581.2988,1356.7765567765566,,0,-1,1768789943.5812988
1768789943589.111,1361.1721611721612,,0,-1,1768789943.589111
1768789943596.9238,1365.5677655677655,,0,-1,1768789943.5969238
1768789943604.7363,1371.428571428571,,0,-1,1768789943.6047363
1768789943612.5488,1373.6263736263736,,0,-1,1768789943.6125488
1768789943620.361,1372.8937728937728,,0,-1,1768789943.620361
1768789943628.1738,1370.6959706959706,,0,-1,1768789943.6281738
1768789943635.9863,1367.032967032967,,0,-1,1768789943.6359863
1768789943643.7988,1364.102564102564,,0,-1,1768789943.6437988
1768789943651.611,1360.4395604395604,,0,-1,1768789943.651611
1768789943659.4238,1355.311355311355,,0,-1,1768789943.6594238
1768789943667.2363,1349.4505494505493,,0,-1,1768789943.6672363
1768789943675.0488,1344.3223443223442,,0,-1,1768789943.6750488
1768789943682.861,1335.5311355311355,,0,-1,1768789943.682861
1768789943690.6738,1328.937728937729,,0,-1,1768789943.6906738
1768789943698.4863,1319.4139194139193,,0,-1,1768789943.6984863
1768789943706.2988,1310.6227106227104,,0,-1,1768789943.7062988
1768789943714.111,1305.4945054945051,,0,-1,1768789943.714111
1768789943721.9238,1301.8315018315018,,0,-1,1768789943.7219238
1768789943729.7363,1299.6336996336995,,0,-1,1768789943.7297363
1768789943737.5488,1298.168498168498,,0,-1,1768789943.7375488
1768789943745.361,1299.6336996336995,,0,-1,1768789943.745361
1768789943753.1738,1298.168498168498,,0,-1,1768789943.7531738
1768789943760.9863,1296.7032967032967,,0,-1,1768789943.7609863
1768789943768.7988,1294.5054945054944,,0,-1,1768789943.7687988
1768789943776.611,1291.5750915750914,,0,-1,1768789943.776611
1768789943784.4238,1289.3772893772891,,0,-1,1768789943.7844238
1768789943792.2363,1290.8424908424909,,0,-1,1768789943.7922363
1768789943800.0488,1294.5054945054944,,0,-1,1768789943.8000488
1768789943807.861,1297.4358974358977,,0,-1,1768789943.807861
1768789943815.6738,1295.970695970696,,0,-1,1768789943.8156738
1768789943823.4863,1291.5750915750914,,0,-1,1768789943.8234863
1768789943831.2988,1287.179487179487,,0,-1,1768789943.8312988
1768789943839.111,1278.3882783882782,,0,-1,1768789943.839111
1768789943846.9238,1268.131868131868,,0,-1,1768789943.8469238
1768789943854.7363,1259.3406593406592,,0,-1,1768789943.8547363
1768789943862.5488,1254.9450549450548,,0,-1,1768789943.8625488
1768789943870.361,1254.212454212454,,0,-1,1768789943.870361
1768789943878.1738,1253.479853479853,,0,-1,1768789943.8781738
1768789943885.9863,1252.014652014652,,0,-1,1768789943.8859863
1768789943893.7988,1252.014652014652,,0,-1,1768789943.8937988
1768789943901.611,1257.142857142857,,0,-1,1768789943.901611
1768789943909.4238,1261.5384615384614,,0,-1,1768789943.9094238
1768789943917.2363,1264.4688644688645,,0,-1,1768789943.9172363
1768789943925.0488,1268.8644688644688,,0,-1,1768789943.9250488
1768789943932.861,1273.992673992674,,0,-1,1768789943.932861
1768789943940.6738,1274.7252747252746,,0,-1,1768789943.9406738
1768789943948.4863,1271.062271062271,,0,-1,1768789943.9484863
1768789943956.2988,1268.131868131868,,0,-1,1768789943.9562988
1768789943964.111,1267.3992673992673,,0,-1,1768789943.964111
1768789943971.9238,1262.2710622710622,,0,-1,1768789943.9719238
1768789943979.7363,1255.6776556776556,,0,-1,1768789943.9797363
1768789943987.5488,1248.3516483516482,,0,-1,1768789943.9875488
1768789943995.361,1241.7582417582416,,0,-1,1768789943.995361
1768789944003.1738,1246.8864468864467,,0,-1,1768789944.0031738
1768789944010.9863,1252.014652014652,,0,-1,1768789944.0109863
1768789944018.7988,1255.6776556776556,,0,-1,1768789944.0187988
1768789944026.611,1262.2710622710622,,0,-1,1768789944.026611
1768789944034.4238,1263.003663003663,,0,-1,1768789944.0344238
1768789944042.2363,1263.003663003663,,0,-1,1768789944.0422363
1768789944050.0488,1264.4688644688645,,0,-1,1768789944.0500488
1768789944057.861,1266.6666666666663,,1,2,1768789944.057861
1768789944065.6738,1267.3992673992673,,1,2,1768789944.0656738
1768789944073.4863,1270.3296703296703,,1,2,1768789944.0734863
1768789944081.2988,1276.190476190476,,1,2,1768789944.0812988
1768789944089.111,1282.051282051282,,1,2,1768789944.089111
1768789944096.9238,1290.10989010989,,1,2,1768789944.0969238
1768789944104.7363,1297.4358974358977,,1,2,1768789944.1047363
1768789944112.5488,1301.8315018315018,,1,2,1768789944.1125488
1768789944120.361,1309.1575091575091,,1,2,1768789944.120361
1768789944128.1738,1315.018315018315,,1,2,1768789944.1281738
1768789944135.9863,1325.2747252747251,,1,2,1768789944.1359863
1768789944143.7988,1336.9963369963368,,1,2,1768789944.1437988
1768789944151.611,1349.4505494505493,,1,2,1768789944.151611
1768789944159.4238,1363.3699633699632,,1,2,1768789944.1594238
1768789944167.2363,1371.428571428571,,1,2,1768789944.1672363
1768789944175.0488,1378.7545787545787,,1,2,1768789944.1750488
1768789944182.861,1378.021978021978,,1,2,1768789944.182861
1768789944190.6738,1382.4175824175825,,1,2,1768789944.1906738
1768789944198.4863,1380.952380952381,,1,2,1768789944.1984863
1768789944206.2988,1382.4175824175825,,1,2,1768789944.2062988
1768789944214.111,1386.080586080586,,1,2,1768789944.214111
1768789944221.9238,1389.0109890109889,,1,2,1768789944.2219238
1768789944229.7363,1397.069597069597,,1,2,1768789944.2297363
1768789944237.5488,1401.4652014652013,,1,2,1768789944.2375488
1768789944245.361,1407.3260073260071,,1,2,1768789944.245361
1768789944253.1738,1408.7912087912086,,1,2,1768789944.2531738
1768789944260.9863,1408.058608058608,,1,2,1768789944.2609863
1768789944268.7988,1405.128205128205,,1,2,1768789944.2687988
1768789944276.611,1406.5934065934066,,1,2,1768789944.276611
1768789944284.4238,1402.9304029304028,,1,2,1768789944.2844238
1768789944292.2363,1402.9304029304028,,1,2,1768789944.2922363
1768789944300.0488,1400.0,,1,2,1768789944.3000488
1768789944307.861,1393.4065934065934,,1,2,1768789944.307861
1768789944315.6738,1390.4761904761904,,1,2,1768789944.3156738
1768789944323.4863,1380.2197802197802,,1,2,1768789944.3234863
1768789944331.2988,1375.091575091575,,1,2,1768789944.3312988
1768789944339.111,1366.3003663003662,,1,2,1768789944.339111
1768789944346.9238,1362.6373626373625,,1,2,1768789944.3469238
1768789944354.7363,1356.7765567765566,,1,2,1768789944.3547363
1768789944362.5488,1353.8461538461538,,1,2,1768789944.3625488
1768789944370.361,1354.5787545787546,,1,2,1768789944.370361
1768789944378.1738,1356.7765567765566,,1,2,1768789944.3781738
1768789944385.9863,1363.3699633699632,,1,2,1768789944.3859863
1768789944393.7988,1362.6373626373625,,1,2,1768789944.3937988
1768789944401.611,1361.904761904762,,1,2,1768789944.401611
1768789944409.4238,1354.5787545787546,,1,2,1768789944.4094238
1768789944417.2363,1345.054945054945,,1,2,1768789944.4172363
1768789944425.0488,1339.194139194139,,1,2,1768789944.4250488
1768789944432.861,1334.065934065934,,1,2,1768789944.432861
1768789944440.6738,1325.2747252747251,,1,2,1768789944.4406738
1768789944448.4863,1321.6117216117216,,1,2,1768789944.4484863
1768789944456.2988,1320.14652014652,,1,2,1768789944.4562988
1768789944464.111,1319.4139194139193,,1,2,1768789944.464111
1768789944471.9238,1323.076923076923,,1,2,1768789944.4719238
1768789944479.7363,1330.4029304029302,,1,2,1768789944.4797363
1768789944487.5488,1333.3333333333333,,1,2,1768789944.4875488
1768789944495.361,1339.92673992674,,1,2,1768789944.495361
1768789944503.1738,1345.7875457875457,,1,2,1768789944.5031738
1768789944510.9863,1347.985347985348,,1,2,1768789944.5109863
1768789944518.7988,1351.6483516483515,,1,2,1768789944.5187988
1768789944526.611,1353.8461538461538,,1,2,1768789944.526611
1768789944534.4238,1353.113553113553,,1,2,1768789944.5344238
1768789944542.2363,1353.113553113553,,1,2,1768789944.5422363
1768789944550.0488,1351.6483516483515,,1,2,1768789944.5500488
1768789944557.861,1347.2527472527472,,1,2,1768789944.557861
1768789944565.6738,1348.7179487179487,,1,2,1768789944.5656738
1768789944573.4863,1348.7179487179487,,1,2,1768789944.5734863
1768789944581.2988,1345.7875457875457,,1,2,1768789944.5812988
1768789944589.111,1345.7875457875457,,1,2,1768789944.589111
1768789944596.9238,1345.054945054945,,1,2,1768789944.5969238
1768789944604.7363,1337.7289377289376,,1,2,1768789944.6047363
1768789944612.5488,1326.007326007326,,1,2,1768789944.6125488
1768789944620.361,1316.4835164835165,,1,2,1768789944.620361
1768789944628.1738,1306.227106227106,,1,2,1768789944.6281738
1768789944635.9863,1300.3663003663005,,1,2,1768789944.6359863
1768789944643.7988,1296.7032967032967,,1,2,1768789944.6437988
1768789944651.611,1288.6446886446886,,1,2,1768789944.651611
1768789944659.4238,1284.9816849816848,,1,2,1768789944.6594238
1768789944667.2363,1276.190476190476,,1,2,1768789944.6672363
1768789944675.0488,1264.4688644688645,,1,2,1768789944.6750488
1768789944682.861,1256.4102564102564,,1,2,1768789944.682861
1768789944690.6738,1251.2820512820513,,1,2,1768789944.6906738
1768789944698.4863,1253.479853479853,,1,2,1768789944.6984863
1768789944706.2988,1261.5384615384614,,1,2,1768789944.7062988
1768789944714.111,1266.6666666666663,,1,2,1768789944.714111
1768789944721.9238,1269.5970695970695,,1,2,1768789944.7219238
1768789944729.7363,1271.7948717948716,,1,2,1768789944.7297363
1768789944737.5488,1274.7252747252746,,1,2,1768789944.7375488
1768789944745.361,1274.7252747252746,,1,2,1768789944.745361
1768789944753.1738,1275.4578754578754,,1,2,1768789944.7531738
1768789944760.9863,1276.190476190476,,1,2,1768789944.7609863
1768789944768.7988,1279.8534798534797,,1,2,1768789944.7687988
1768789944776.611,1286.4468864468863,,1,2,1768789944.776611
1768789944784.4238,1293.7728937728937,,1,2,1768789944.7844238
1768789944792.2363,1296.7032967032967,,1,2,1768789944.7922363
1768789944800.0488,1294.5054945054944,,1,2,1768789944.8000488
1768789944807.861,1289.3772893772891,,1,2,1768789944.807861
1768789944815.6738,1287.179487179487,,1,2,1768789944.8156738
1768789944823.4863,1281.3186813186812,,1,2,1768789944.8234863
1768789944831.2988,1273.992673992674,,1,2,1768789944.8312988
1768789944839.111,1265.9340659340658,,1,2,1768789944.839111
1768789944846.9238,1255.6776556776556,,1,2,1768789944.8469238
1768789944854.7363,1248.3516483516482,,1,2,1768789944.8547363
1768789944862.5488,1246.153846153846,,1,2,1768789944.8625488
1768789944870.361,1246.153846153846,,1,2,1768789944.870361
1768789944878.1738,1245.4212454212454,,1,2,1768789944.8781738
1768789944885.9863,1243.956043956044,,1,2,1768789944.8859863
1768789944893.7988,1238.8278388278388,,1,2,1768789944.8937988
1768789944901.611,1236.6300366300366,,1,2,1768789944.901611
1768789944909.4238,1238.095238095238,,1,2,1768789944.9094238
1768789944917.2363,1238.095238095238,,1,2,1768789944.9172363
1768789944925.0488,1239.5604395604396,,1,2,1768789944.9250488
1768789944932.861,1246.8864468864467,,1,2,1768789944.932861
1768789944940.6738,1258.6080586080586,,1,2,1768789944.9406738
1768789944948.4863,1273.260073260073,,1,2,1768789944.9484863
1768789944956.2988,1285.7142857142856,,1,2,1768789944.9562988
1768789944964.111,1299.6336996336995,,1,2,1768789944.964111
1768789944971.9238,1315.018315018315,,1,2,1768789944.9719238
1768789944979.7363,1328.937728937729,,1,2,1768789944.9797363
1768789944987.5488,1342.124542124542,,1,2,1768789944.9875488
1768789944995.361,1358.241758241758,,1,2,1768789944.995361
1768789945003.1738,1375.091575091575,,1,2,1768789945.0031738
1768789945010.9863,1388.278388278388,,1,2,1768789945.0109863
1768789945018.7988,1396.3369963369962,,1,2,1768789945.0187988
1768789945026.611,1400.0,,1,2,1768789945.026611
1768789945034.4238,1406.5934065934066,,1,2,1768789945.0344238
1768789945042.2363,1408.058608058608,,1,2,1768789945.0422363
1768789945050.0488,1408.7912087912086,,1,2,1768789945.0500488
1768789945057.861,1406.5934065934066,,1,2,1768789945.057861
1768789945065.6738,1403.6630036630036,,1,2,1768789945.0656738
1768789945073.4863,1402.197802197802,,1,2,1768789945.0734863
1768789945081.2988,1398.5347985347985,,1,2,1768789945.0812988
1768789945089.111,1394.8717948717947,,1,2,1768789945.089111
1768789945096.9238,1390.4761904761904,,1,2,1768789945.0969238
1768789945104.7363,1386.080586080586,,1,2,1768789945.1047363
1768789945112.5488,1384.6153846153843,,1,2,1768789945.1125488
1768789945120.361,1387.5457875457876,,1,2,1768789945.120361
1768789945128.1738,1389.0109890109889,,1,2,1768789945.1281738
1768789945135.9863,1389.7435897435896,,1,2,1768789945.1359863
1768789945143.7988,1395.6043956043954,,1,2,1768789945.1437988
1768789945151.611,1400.0,,1,2,1768789945.151611
1768789945159.4238,1395.6043956043954,,1,2,1768789945.1594238
1768789945167.2363,1386.8131868131868,,1,2,1768789945.1672363
1768789945175.0488,1375.091575091575,,1,2,1768789945.1750488
1768789945182.861,1366.3003663003662,,1,2,1768789945.182861
1768789945190.6738,1358.241758241758,,1,2,1768789945.1906738
1768789945198.4863,1354.5787545787546,,1,2,1768789945.1984863
1768789945206.2988,1356.043956043956,,1,2,1768789945.2062988
1768789945214.111,1361.1721611721612,,1,2,1768789945.214111
1768789945221.9238,1366.3003663003662,,1,2,1768789945.2219238
1768789945229.7363,1369.9633699633698,,1,2,1768789945.2297363
1768789945237.5488,1366.3003663003662,,1,2,1768789945.2375488
1768789945245.361,1359.7069597069597,,1,2,1768789945.245361
1768789945253.1738,1354.5787545787546,,1,2,1768789945.2531738
1768789945260.9863,1352.3809523809523,,1,2,1768789945.2609863
1768789945268.7988,1353.8461538461538,,1,2,1768789945.2687988
1768789945276.611,1356.043956043956,,1,2,1768789945.276611
1768789945284.4238,1356.7765567765566,,1,2,1768789945.2844238
1768789945292.2363,1358.241758241758,,1,2,1768789945.2922363
1768789945300.0488,1359.7069597069597,,1,2,1768789945.3000488
1768789945307.861,1359.7069597069597,,1,2,1768789945.307861
1768789945315.6738,1358.241758241758,,1,2,1768789945.3156738
1768789945323.4863,1356.043956043956,,1,2,1768789945.3234863
1768789945331.2988,1357.5091575091574,,1,2,1768789945.3312988
1768789945339.111,1360.4395604395604,,1,2,1768789945.339111
1768789945346.9238,1360.4395604395604,,1,2,1768789945.3469238
1768789945354.7363,1357.5091575091574,,1,2,1768789945.3547363
1768789945362.5488,1356.043956043956,,1,2,1768789945.3625488
1768789945370.361,1356.043956043956,,1,2,1768789945.370361
1768789945378.1738,1354.5787545787546,,1,2,1768789945.3781738
1768789945385.9863,1353.113553113553,,1,2,1768789945.3859863
1768789945393.7988,1347.2527472527472,,1,2,1768789945.3937988
1768789945401.611,1342.124542124542,,1,2,1768789945.401611
1768789945409.4238,1340.6593406593406,,1,2,1768789945.4094238
1768789945417.2363,1338.4615384615383,,1,2,1768789945.4172363
1768789945425.0488,1336.9963369963368,,1,2,1768789945.4250488
1768789945432.861,1334.065934065934,,1,2,1768789945.432861
1768789945440.6738,1329.6703296703297,,1,2,1768789945.4406738
1768789945448.4863,1328.2051282051282,,1,2,1768789945.4484863
1768789945456.2988,1326.007326007326,,1,2,1768789945.4562988
1768789945464.111,1326.007326007326,,1,2,1768789945.464111
1768789945471.9238,1323.076923076923,,1,2,1768789945.4719238
1768789945479.7363,1318.6813186813183,,1,2,1768789945.4797363
1768789945487.5488,1315.7509157509155,,1,2,1768789945.4875488
1768789945495.361,1312.087912087912,,1,2,1768789945.495361
1768789945503.1738,1305.4945054945051,,1,2,1768789945.5031738
1768789945510.9863,1299.6336996336995,,1,2,1768789945.5109863
1768789945518.7988,1293.7728937728937,,1,2,1768789945.5187988
1768789945526.611,1290.10989010989,,1,2,1768789945.526611
1768789945534.4238,1290.10989010989,,1,2,1768789945.5344238
1768789945542.2363,1291.5750915750914,,1,2,1768789945.5422363
1768789945550.0488,1293.7728937728937,,1,2,1768789945.5500488
1768789945557.861,1296.7032967032967,,1,2,1768789945.557861
1768789945565.6738,1301.098901098901,,1,2,1768789945.5656738
1768789945573.4863,1295.970695970696,,1,2,1768789945.5734863
1768789945581.2988,1286.4468864468863,,1,2,1768789945.5812988
1768789945589.111,1279.120879120879,,1,2,1768789945.589111
1768789945596.9238,1273.992673992674,,1,2,1768789945.5969238
1768789945604.7363,1269.5970695970695,,1,2,1768789945.6047363
1768789945612.5488,1268.8644688644688,,1,2,1768789945.6125488
1768789945620.361,1270.3296703296703,,1,2,1768789945.620361
1768789945628.1738,1273.992673992674,,1,2,1768789945.6281738
1768789945635.9863,1281.3186813186812,,1,2,1768789945.6359863
1768789945643.7988,1290.10989010989,,1,2,1768789945.6437988
1768789945651.611,1296.7032967032967,,1,2,1768789945.651611
1768789945659.4238,1300.3663003663005,,1,2,1768789945.6594238
1768789945667.2363,1304.0293040293038,,1,2,1768789945.6672363
1768789945675.0488,1307.6923076923076,,1,2,1768789945.6750488
1768789945682.861,1306.9597069597069,,1,2,1768789945.682861
1768789945690.6738,1303.2967032967033,,1,2,1768789945.6906738
1768789945698.4863,1298.9010989010987,,1,2,1768789945.6984863
1768789945706.2988,1292.3076923076922,,1,2,1768789945.7062988
1768789945714.111,1284.2490842490845,,1,2,1768789945.714111
1768789945721.9238,1281.3186813186812,,1,2,1768789945.7219238
1768789945729.7363,1283.5164835164835,,1,2,1768789945.7297363
1768789945737.5488,1287.9120879120878,,1,2,1768789945.7375488
1768789945745.361,1293.040293040293,,1,2,1768789945.745361
1768789945753.1738,1295.970695970696,,1,2,1768789945.7531738
1768789945760.9863,1299.6336996336995,,1,2,1768789945.7609863
1768789945768.7988,1305.4945054945051,,1,2,1768789945.7687988
1768789945776.611,1310.6227106227104,,1,2,1768789945.776611
1768789945784.4238,1313.5531135531137,,1,2,1768789945.7844238
1768789945792.2363,1317.216117216117,,1,2,1768789945.7922363
1768789945800.0488,1324.5421245421244,,1,2,1768789945.8000488
1768789945807.861,1338.4615384615383,,1,2,1768789945.807861
1768789945815.6738,1352.3809523809523,,1,2,1768789945.8156738
1768789945823.4863,1365.5677655677655,,1,2,1768789945.8234863
1768789945831.2988,1378.7545787545787,,1,2,1768789945.8312988
1768789945839.111,1391.941391941392,,1,2,1768789945.839111
1768789945846.9238,1406.5934065934066,,1,2,1768789945.8469238
1768789945854.7363,1418.3150183150185,,1,2,1768789945.8547363
1768789945862.5488,1424.175824175824,,1,2,1768789945.8625488
1768789945870.361,1430.03663003663,,1,2,1768789945.870361
1768789945878.1738,1432.2344322344322,,1,2,1768789945.8781738
1768789945885.9863,1431.5018315018317,,1,2,1768789945.8859863
1768789945893.7988,1432.9670329670328,,1,2,1768789945.8937988
1768789945901.611,1435.164835164835,,1,2,1768789945.901611
1768789945909.4238,1430.7692307692307,,1,2,1768789945.9094238
1768789945917.2363,1427.106227106227,,1,2,1768789945.9172363
1768789945925.0488,1420.5128205128203,,1,2,1768789945.9250488
1768789945932.861,1413.9194139194135,,1,2,1768789945.932861
1768789945940.6738,1408.7912087912086,,1,2,1768789945.9406738
1768789945948.4863,1406.5934065934066,,1,2,1768789945.9484863
1768789945956.2988,1407.3260073260071,,1,2,1768789945.9562988
1768789945964.111,1410.2564102564102,,1,2,1768789945.964111
1768789945971.9238,1409.5238095238094,,1,2,1768789945.9719238
1768789945979.7363,1410.2564102564102,,1,2,1768789945.9797363
1768789945987.5488,1414.6520146520145,,1,2,1768789945.9875488
1768789945995.361,1416.8498168498168,,1,2,1768789945.995361
1768789946003.1738,1413.1868131868132,,1,2,1768789946.0031738
1768789946010.9863,1405.128205128205,,1,2,1768789946.0109863
1768789946018.7988,1400.0,,1,2,1768789946.0187988
1768789946026.611,1387.5457875457876,,1,2,1768789946.026611
1768789946034.4238,1383.150183150183,,1,2,1768789946.0344238
1768789946042.2363,1378.021978021978,,1,2,1768789946.0422363
1768789946050.0488,1371.428571428571,,1,2,1768789946.0500488
1768789946057.861,1372.161172161172,,1,2,1768789946.057861
1768789946065.6738,1375.091575091575,,1,2,1768789946.0656738
1768789946073.4863,1374.3589743589744,,1,2,1768789946.0734863
1768789946081.2988,1374.3589743589744,,1,2,1768789946.0812988
1768789946089.111,1373.6263736263736,,1,2,1768789946.089111
1768789946096.9238,1368.4981684981683,,1,2,1768789946.0969238
1768789946104.7363,1368.4981684981683,,1,2,1768789946.1047363
1768789946112.5488,1373.6263736263736,,1,2,1768789946.1125488
1768789946120.361,1377.2893772893772,,1,2,1768789946.120361
1768789946128.1738,1383.8827838827838,,1,2,1768789946.1281738
1768789946135.9863,1392.6739926739926,,1,2,1768789946.1359863
1768789946143.7988,1397.069597069597,,1,2,1768789946.1437988
1768789946151.611,1403.6630036630036,,1,2,1768789946.151611
1768789946159.4238,1410.2564102564102,,1,2,1768789946.1594238
1768789946167.2363,1409.5238095238094,,1,2,1768789946.1672363
1768789946175.0488,1408.058608058608,,1,2,1768789946.1750488
1768789946182.861,1397.069597069597,,1,2,1768789946.182861
1768789946190.6738,1387.5457875457876,,1,2,1768789946.1906738
1768789946198.4863,1372.161172161172,,1,2,1768789946.1984863
1768789946206.2988,1364.102564102564,,1,2,1768789946.2062988
1768789946214.111,1355.311355311355,,1,2,1768789946.214111
1768789946221.9238,1347.985347985348,,1,2,1768789946.2219238
1768789946229.7363,1343.5897435897434,,1,2,1768789946.2297363
1768789946237.5488,1338.4615384615383,,1,2,1768789946.2375488
1768789946245.361,1336.263736263736,,1,2,1768789946.245361
1768789946253.1738,1329.6703296703297,,1,2,1768789946.2531738
1768789946260.9863,1327.4725274725274,,1,2,1768789946.2609863
1768789946268.7988,1328.2051282051282,,1,2,1768789946.2687988
1768789946276.611,1326.007326007326,,1,2,1768789946.276611
1768789946284.4238,1326.739926739927,,1,2,1768789946.2844238
1768789946292.2363,1328.2051282051282,,1,2,1768789946.2922363
1768789946300.0488,1329.6703296703297,,1,2,1768789946.3000488
1768789946307.861,1334.7985347985348,,1,2,1768789946.307861
1768789946315.6738,1339.194139194139,,1,2,1768789946.3156738
1768789946323.4863,1336.9963369963368,,1,2,1768789946.3234863
1768789946331.2988,1339.194139194139,,1,2,1768789946.3312988
1768789946339.111,1338.4615384615383,,1,2,1768789946.339111
1768789946346.9238,1331.8681318681315,,1,2,1768789946.3469238
1768789946354.7363,1325.2747252747251,,1,2,1768789946.3547363
1768789946362.5488,1317.9487179487178,,1,2,1768789946.3625488
1768789946370.361,1314.2857142857142,,1,2,1768789946.370361
1768789946378.1738,1309.89010989011,,1,2,1768789946.3781738
1768789946385.9863,1312.8205128205127,,1,2,1768789946.3859863
1768789946393.7988,1312.8205128205127,,1,2,1768789946.3937988
1768789946401.611,1312.8205128205127,,1,2,1768789946.401611
1768789946409.4238,1313.5531135531137,,1,2,1768789946.4094238
1768789946417.2363,1309.1575091575091,,1,2,1768789946.4172363
1768789946425.0488,1310.6227106227104,,1,2,1768789946.4250488
1768789946432.861,1314.2857142857142,,1,2,1768789946.432861
1768789946440.6738,1315.7509157509155,,1,2,1768789946.4406738
1768789946448.4863,1317.9487179487178,,1,2,1768789946.4484863
1768789946456.2988,1320.14652014652,,1,2,1768789946.4562988
1768789946464.111,1313.5531135531137,,1,2,1768789946.464111
1768789946471.9238,1306.9597069597069,,1,2,1768789946.4719238
1768789946479.7363,1301.8315018315018,,1,2,1768789946.4797363
1768789946487.5488,1295.2380952380952,,1,2,1768789946.4875488
1768789946495.361,1296.7032967032967,,1,2,1768789946.495361
1768789946503.1738,1299.6336996336995,,1,2,1768789946.5031738
1768789946510.9863,1302.5641025641023,,1,2,1768789946.5109863
1768789946518.7988,1311.3553113553112,,1,2,1768789946.5187988
1768789946526.611,1318.6813186813183,,1,2,1768789946.526611
1768789946534.4238,1325.2747252747251,,1,2,1768789946.5344238
1768789946542.2363,1329.6703296703297,,1,2,1768789946.5422363
1768789946550.0488,1337.7289377289376,,1,2,1768789946.5500488
1768789946557.861,1350.18315018315,,1,2,1768789946.557861
1768789946565.6738,1363.3699633699632,,1,2,1768789946.5656738
1768789946573.4863,1380.952380952381,,1,2,1768789946.5734863
1768789946581.2988,1398.5347985347985,,1,2,1768789946.5812988
1768789946589.111,1407.3260073260071,,1,2,1768789946.589111
1768789946596.9238,1421.9780219780218,,1,2,1768789946.5969238
1768789946604.7363,1432.2344322344322,,1,2,1768789946.6047363
1768789946612.5488,1440.29304029304,,1,2,1768789946.6125488
1768789946620.361,1452.014652014652,,1,2,1768789946.620361
1768789946628.1738,1462.2710622710622,,1,2,1768789946.6281738
1768789946635.9863,1469.5970695970695,,1,2,1768789946.6359863
1768789946643.7988,1477.6556776556777,,1,2,1768789946.6437988
1768789946651.611,1484.9816849816848,,1,2,1768789946.651611
1768789946659.4238,1484.9816849816848,,1,2,1768789946.6594238
1768789946667.2363,1485.7142857142856,,1,2,1768789946.6672363
1768789946675.0488,1484.2490842490845,,1,2,1768789946.6750488
1768789946682.861,1478.3882783882782,,1,2,1768789946.682861
1768789946690.6738,1477.6556776556777,,1,2,1768789946.6906738
1768789946698.4863,1473.992673992674,,1,2,1768789946.6984863
1768789946706.2988,1475.4578754578754,,1,2,1768789946.7062988
1768789946714.111,1475.4578754578754,,1,2,1768789946.714111
1768789946721.9238,1471.7948717948716,,1,2,1768789946.7219238
1768789946729.7363,1468.8644688644688,,1,2,1768789946.7297363
1768789946737.5488,1461.5384615384614,,1,2,1768789946.7375488
1768789946745.361,1457.142857142857,,1,2,1768789946.745361
1768789946753.1738,1450.5494505494505,,1,2,1768789946.7531738
1768789946760.9863,1449.084249084249,,1,2,1768789946.7609863
1768789946768.7988,1445.4212454212454,,1,2,1768789946.7687988
1768789946776.611,1446.153846153846,,1,2,1768789946.776611
1768789946784.4238,1441.7582417582416,,1,2,1768789946.7844238
1768789946792.2363,1433.6996336996335,,0,-1,1768789946.7922363
1768789946800.0488,1427.106227106227,,0,-1,1768789946.8000488
1768789946807.861,1416.117216117216,,0,-1,1768789946.807861
1768789946815.6738,1408.058608058608,,0,-1,1768789946.8156738
1768789946823.4863,1402.9304029304028,,0,-1,1768789946.8234863
1768789946831.2988,1394.8717948717947,,0,-1,1768789946.8312988
1768789946839.111,1393.4065934065934,,0,-1,1768789946.839111
1768789946846.9238,1388.278388278388,,0,-1,1768789946.8469238
1768789946854.7363,1388.278388278388,,0,-1,1768789946.8547363
1768789946862.5488,1391.2087912087911,,0,-1,1768789946.8625488
1768789946870.361,1397.069597069597,,0,-1,1768789946.870361
1768789946878.1738,1403.6630036630036,,0,-1,1768789946.8781738
1768789946885.9863,1409.5238095238094,,0,-1,1768789946.8859863
1768789946893.7988,1409.5238095238094,,0,-1,1768789946.8937988
1768789946901.611,1410.989010989011,,0,-1,1768789946.901611
1768789946909.4238,1408.058608058608,,0,-1,1768789946.9094238
1768789946917.2363,1411.7216117216117,,0,-1,1768789946.9172363
1768789946925.0488,1408.7912087912086,,0,-1,1768789946.9250488
1768789946932.861,1409.5238095238094,,0,-1,1768789946.932861
1768789946940.6738,1409.5238095238094,,0,-1,1768789946.9406738
1768789946948.4863,1411.7216117216117,,0,-1,1768789946.9484863
1768789946956.2988,1415.3846153846152,,0,-1,1768789946.9562988
1768789946964.111,1416.117216117216,,0,-1,1768789946.964111
1768789946971.9238,1419.047619047619,,0,-1,1768789946.9719238
1768789946979.7363,1417.5824175824175,,0,-1,1768789946.9797363
1768789946987.5488,1421.245421245421,,0,-1,1768789946.9875488
1768789946995.361,1420.5128205128203,,0,-1,1768789946.995361
1768789947003.1738,1416.117216117216,,0,-1,1768789947.0031738
1768789947010.9863,1414.6520146520145,,0,-1,1768789947.0109863
1768789947018.7988,1408.7912087912086,,0,-1,1768789947.0187988
1768789947026.611,1402.9304029304028,,0,-1,1768789947.026611
1768789947034.4238,1402.197802197802,,0,-1,1768789947.0344238
1768789947042.2363,1397.8021978021975,,0,-1,1768789947.0422363
1768789947050.0488,1398.5347985347985,,0,-1,1768789947.0500488
1768789947057.861,1394.8717948717947,,0,-1,1768789947.057861
1768789947065.6738,1392.6739926739926,,0,-1,1768789947.0656738
1768789947073.4863,1389.0109890109889,,0,-1,1768789947.0734863
1768789947081.2988,1383.8827838827838,,0,-1,1768789947.0812988
1768789947089.111,1382.4175824175825,,0,-1,1768789947.089111
1768789947096.9238,1380.2197802197802,,0,-1,1768789947.0969238
1768789947104.7363,1375.091575091575,,0,-1,1768789947.1047363
1768789947112.5488,1374.3589743589744,,0,-1,1768789947.1125488
1768789947120.361,1375.8241758241757,,0,-1,1768789947.120361
1768789947128.1738,1372.161172161172,,0,-1,1768789947.1281738
1768789947135.9863,1368.4981684981683,,0,-1,1768789947.1359863
1768789947143.7988,1361.904761904762,,0,-1,1768789947.1437988
1768789947151.611,1355.311355311355,,0,-1,1768789947.151611
1768789947159.4238,1353.113553113553,,0,-1,1768789947.1594238
1768789947167.2363,1351.6483516483515,,0,-1,1768789947.1672363
1768789947175.0488,1348.7179487179487,,0,-1,1768789947.1750488
1768789947182.861,1350.18315018315,,0,-1,1768789947.182861
1768789947190.6738,1347.2527472527472,,0,-1,1768789947.1906738
1768789947198.4863,1343.5897435897434,,0,-1,1768789947.1984863
1768789947206.2988,1341.3919413919414,,0,-1,1768789947.2062988
1768789947214.111,1335.5311355311355,,0,-1,1768789947.214111
1768789947221.9238,1328.937728937729,,0,-1,1768789947.2219238
1768789947229.7363,1326.007326007326,,0,-1,1768789947.2297363
1768789947237.5488,1319.4139194139193,,0,-1,1768789947.2375488
1768789947245.361,1314.2857142857142,,0,-1,1768789947.245361
1768789947253.1738,1311.3553113553112,,0,-1,1768789947.2531738
1768789947260.9863,1309.89010989011,,0,-1,1768789947.2609863
1768789947268.7988,1312.8205128205127,,0,-1,1768789947.2687988
1768789947276.611,1313.5531135531137,,0,-1,1768789947.276611
1768789947284.4238,1315.018315018315,,0,-1,1768789947.2844238
1768789947292.2363,1311.3553113553112,,0,-1,1768789947.2922363
1768789947300.0488,1308.4249084249084,,0,-1,1768789947.3000488
1768789947307.861,1310.6227106227104,,0,-1,1768789947.307861
1768789947315.6738,1312.8205128205127,,0,-1,1768789947.3156738
1768789947323.4863,1317.216117216117,,0,-1,1768789947.3234863
1768789947331.2988,1325.2747252747251,,0,-1,1768789947.3312988
1768789947339.111,1334.7985347985348,,0,-1,1768789947.339111
1768789947346.9238,1344.3223443223442,,0,-1,1768789947.3469238
1768789947354.7363,1356.043956043956,,0,-1,1768789947.3547363
1768789947362.5488,1371.428571428571,,0,-1,1768789947.3625488
1768789947370.361,1385.3479853479853,,0,-1,1768789947.370361
1768789947378.1738,1397.069597069597,,0,-1,1768789947.3781738
1768789947385.9863,1413.1868131868132,,0,-1,1768789947.3859863
1768789947393.7988,1429.3040293040292,,0,-1,1768789947.3937988
1768789947401.611,1442.4908424908424,,0,-1,1768789947.401611
1768789947409.4238,1454.9450549450548,,0,-1,1768789947.4094238
1768789947417.2363,1467.3992673992673,,0,-1,1768789947.4172363
1768789947425.0488,1477.6556776556777,,0,-1,1768789947.4250488
1768789947432.861,1482.051282051282,,0,-1,1768789947.432861
1768789947440.6738,1484.9816849816848,,0,-1,1768789947.4406738
1768789947448.4863,1487.9120879120878,,0,-1,1768789947.4484863
1768789947456.2988,1493.040293040293,,0,-1,1768789947.4562988
1768789947464.111,1495.2380952380952,,0,-1,1768789947.464111
1768789947471.9238,1494.5054945054944,,0,-1,1768789947.4719238
1768789947479.7363,1492.3076923076922,,0,-1,1768789947.4797363
1768789947487.5488,1487.179487179487,,0,-1,1768789947.4875488
1768789947495.361,1482.7838827838827,,0,-1,1768789947.495361
1768789947503.1738,1483.5164835164835,,0,-1,1768789947.5031738
1768789947510.9863,1483.5164835164835,,0,-1,1768789947.5109863
1768789947518.7988,1484.2490842490845,,0,-1,1768789947.5187988
1768789947526.611,1489.3772893772891,,0,-1,1768789947.526611
1768789947534.4238,1495.2380952380952,,0,-1,1768789947.5344238
1768789947542.2363,1501.098901098901,,0,-1,1768789947.5422363
1768789947550.0488,1502.5641025641023,,0,-1,1768789947.5500488
1768789947557.861,1501.098901098901,,0,-1,1768789947.557861
1768789947565.6738,1495.2380952380952,,0,-1,1768789947.5656738
1768789947573.4863,1488.6446886446886,,0,-1,1768789947.5734863
1768789947581.2988,1481.3186813186812,,0,-1,1768789947.5812988
1768789947589.111,1473.260073260073,,0,-1,1768789947.589111
1768789947596.9238,1464.4688644688645,,0,-1,1768789947.5969238
1768789947604.7363,1451.2820512820513,,0,-1,1768789947.6047363
1768789947612.5488,1437.362637362637,,0,-1,1768789947.6125488
1768789947620.361,1427.106227106227,,0,-1,1768789947.620361
1768789947628.1738,1419.7802197802198,,0,-1,1768789947.6281738
1768789947635.9863,1417.5824175824175,,0,-1,1768789947.6359863
1768789947643.7988,1419.7802197802198,,0,-1,1768789947.6437988
1768789947651.611,1424.175824175824,,0,-1,1768789947.651611
1768789947659.4238,1430.03663003663,,0,-1,1768789947.6594238
1768789947667.2363,1432.9670329670328,,0,-1,1768789947.6672363
1768789947675.0488,1436.6300366300366,,0,-1,1768789947.6750488
1768789947682.861,1440.29304029304,,0,-1,1768789947.682861
1768789947690.6738,1439.5604395604394,,0,-1,1768789947.6906738
1768789947698.4863,1434.4322344322345,,0,-1,1768789947.6984863
1768789947706.2988,1427.106227106227,,0,-1,1768789947.7062988
1768789947714.111,1424.175824175824,,0,-1,1768789947.714111
1768789947721.9238,1421.9780219780218,,0,-1,1768789947.7219238
1768789947729.7363,1421.245421245421,,0,-1,1768789947.7297363
1768789947737.5488,1419.047619047619,,0,-1,1768789947.7375488
1768789947745.361,1417.5824175824175,,0,-1,1768789947.745361
1768789947753.1738,1415.3846153846152,,0,-1,1768789947.7531738
1768789947760.9863,1410.2564102564102,,0,-1,1768789947.7609863
1768789947768.7988,1409.5238095238094,,0,-1,1768789947.7687988
1768789947776.611,1407.3260073260071,,0,-1,1768789947.776611
1768789947784.4238,1404.3956043956043,,0,-1,1768789947.7844238
1768789947792.2363,1401.4652014652013,,0,-1,1768789947.7922363
1768789947800.0488,1396.3369963369962,,0,-1,1768789947.8000488
1768789947807.861,1391.2087912087911,,0,-1,1768789947.807861
1768789947815.6738,1388.278388278388,,0,-1,1768789947.8156738
1768789947823.4863,1385.3479853479853,,0,-1,1768789947.8234863
1768789947831.2988,1381.6849816849815,,0,-1,1768789947.8312988
1768789947839.111,1377.2893772893772,,0,-1,1768789947.839111
1768789947846.9238,1372.8937728937728,,0,-1,1768789947.8469238
1768789947854.7363,1368.4981684981683,,0,-1,1768789947.8547363
1768789947862.5488,1363.3699633699632,,0,-1,1768789947.8625488
1768789947870.361,1361.1721611721612,,0,-1,1768789947.870361
1768789947878.1738,1360.4395604395604,,0,-1,1768789947.8781738
1768789947885.9863,1358.974358974359,,0,-1,1768789947.8859863
1768789947893.7988,1357.5091575091574,,0,-1,1768789947.8937988
1768789947901.611,1358.241758241758,,0,-1,1768789947.901611
1768789947909.4238,1357.5091575091574,,0,-1,1768789947.9094238
1768789947917.2363,1353.113553113553,,0,-1,1768789947.9172363
1768789947925.0488,1349.4505494505493,,0,-1,1768789947.9250488
1768789947932.861,1343.5897435897434,,0,-1,1768789947.932861
1768789947940.6738,1336.263736263736,,0,-1,1768789947.9406738
1768789947948.4863,1331.8681318681315,,0,-1,1768789947.9484863
1768789947956.2988,1332.6007326007325,,0,-1,1768789947.9562988
1768789947964.111,1332.6007326007325,,0,-1,1768789947.964111
1768789947971.9238,1333.3333333333333,,0,-1,1768789947.9719238
1768789947979.7363,1334.7985347985348,,0,-1,1768789947.9797363
1768789947987.5488,1336.9963369963368,,0,-1,1768789947.9875488
1768789947995.361,1339.194139194139,,0,-1,1768789947.995361
1768789948003.1738,1339.194139194139,,0,-1,1768789948.0031738
1768789948010.9863,1338.4615384615383,,0,-1,1768789948.0109863
1768789948018.7988,1336.263736263736,,0,-1,1768789948.0187988
1768789948026.611,1335.5311355311355,,0,-1,1768789948.026611
1768789948034.4238,1335.5311355311355,,0,-1,1768789948.0344238
1768789948042.2363,1335.5311355311355,,0,-1,1768789948.0422363
1768789948050.0488,1333.3333333333333,,0,-1,1768789948.0500488
1768789948057.861,1330.4029304029302,,0,-1,1768789948.057861
1768789948065.6738,1326.739926739927,,0,-1,1768789948.0656738
1768789948073.4863,1323.8095238095236,,0,-1,1768789948.0734863
1768789948081.2988,1320.14652014652,,0,-1,1768789948.0812988
1768789948089.111,1318.6813186813183,,0,-1,1768789948.089111
1768789948096.9238,1319.4139194139193,,0,-1,1768789948.0969238
1768789948104.7363,1320.14652014652,,0,-1,1768789948.1047363
1768789948112.5488,1320.8791208791208,,0,-1,1768789948.1125488
1768789948120.361,1323.076923076923,,0,-1,1768789948.120361
1768789948128.1738,1325.2747252747251,,0,-1,1768789948.1281738
1768789948135.9863,1325.2747252747251,,0,-1,1768789948.1359863
1768789948143.7988,1324.5421245421244,,0,-1,1768789948.1437988
1768789948151.611,1323.8095238095236,,0,-1,1768789948.151611
1768789948159.4238,1320.8791208791208,,0,-1,1768789948.1594238
1768789948167.2363,1320.14652014652,,0,-1,1768789948.1672363
1768789948175.0488,1320.8791208791208,,0,-1,1768789948.1750488
1768789948182.861,1320.14652014652,,0,-1,1768789948.182861
1768789948190.6738,1317.9487179487178,,0,-1,1768789948.1906738
1768789948198.4863,1316.4835164835165,,0,-1,1768789948.1984863
1768789948206.2988,1313.5531135531137,,0,-1,1768789948.2062988
1768789948214.111,1311.3553113553112,,0,-1,1768789948.214111
1768789948221.9238,1309.89010989011,,0,-1,1768789948.2219238
1768789948229.7363,1309.89010989011,,0,-1,1768789948.2297363
1768789948237.5488,1312.087912087912,,0,-1,1768789948.2375488
1768789948245.361,1315.018315018315,,0,-1,1768789948.245361
1768789948253.1738,1319.4139194139193,,0,-1,1768789948.2531738
1768789948260.9863,1330.4029304029302,,0,-1,1768789948.2609863
1768789948268.7988,1344.3223443223442,,0,-1,1768789948.2687988
1768789948276.611,1360.4395604395604,,0,-1,1768789948.276611
1768789948284.4238,1378.7545787545787,,0,-1,1768789948.2844238
1768789948292.2363,1397.069597069597,,0,-1,1768789948.2922363
1768789948300.0488,1417.5824175824175,,0,-1,1768789948.3000488
1768789948307.861,1435.8974358974358,,0,-1,1768789948.307861
1768789948315.6738,1452.7472527472526,,0,-1,1768789948.3156738
1768789948323.4863,1466.6666666666663,,0,-1,1768789948.3234863
1768789948331.2988,1476.923076923077,,0,-1,1768789948.3312988
1768789948339.111,1487.9120879120878,,0,-1,1768789948.339111
1768789948346.9238,1497.4358974358972,,0,-1,1768789948.3469238
1768789948354.7363,1506.227106227106,,0,-1,1768789948.3547363
1768789948362.5488,1514.2857142857142,,0,-1,1768789948.3625488
1768789948370.361,1523.8095238095236,,0,-1,1768789948.370361
1768789948378.1738,1535.5311355311355,,0,-1,1768789948.3781738
1768789948385.9863,1548.7179487179485,,0,-1,1768789948.3859863
1768789948393.7988,1562.6373626373625,,0,-1,1768789948.3937988
1768789948401.611,1573.6263736263736,,0,-1,1768789948.401611
1768789948409.4238,1581.6849816849815,,0,-1,1768789948.4094238
1768789948417.2363,1588.278388278388,,0,-1,1768789948.4172363
1768789948425.0488,1591.941391941392,,0,-1,1768789948.4250488
1768789948432.861,1593.4065934065934,,0,-1,1768789948.432861
1768789948440.6738,1595.6043956043954,,0,-1,1768789948.4406738
1768789948448.4863,1594.139194139194,,0,-1,1768789948.4484863
1768789948456.2988,1593.4065934065934,,0,-1,1768789948.4562988
1768789948464.111,1594.8717948717947,,0,-1,1768789948.464111
1768789948471.9238,1596.3369963369962,,0,-1,1768789948.4719238
1768789948479.7363,1596.3369963369962,,0,-1,1768789948.4797363
1768789948487.5488,1593.4065934065934,,0,-1,1768789948.4875488
1768789948495.361,1588.278388278388,,0,-1,1768789948.495361
1768789948503.1738,1579.4871794871794,,0,-1,1768789948.5031738
1768789948510.9863,1567.7655677655678,,0,-1,1768789948.5109863
1768789948518.7988,1556.043956043956,,0,-1,1768789948.5187988
1768789948526.611,1546.5201465201465,,0,-1,1768789948.526611
1768789948534.4238,1536.9963369963368,,0,-1,1768789948.5344238
1768789948542.2363,1532.6007326007325,,0,-1,1768789948.5422363
1768789948550.0488,1528.2051282051282,,0,-1,1768789948.5500488
1768789948557.861,1526.739926739927,,0,-1,1768789948.557861
1768789948565.6738,1527.4725274725274,,0,-1,1768789948.5656738
1768789948573.4863,1531.8681318681315,,0,-1,1768789948.5734863
1768789948581.2988,1536.9963369963368,,0,-1,1768789948.5812988
1768789948589.111,1542.857142857143,,0,-1,1768789948.589111
1768789948596.9238,1547.985347985348,,0,-1,1768789948.5969238
1768789948604.7363,1546.5201465201465,,0,-1,1768789948.6047363
1768789948612.5488,1542.124542124542,,0,-1,1768789948.6125488
1768789948620.361,1537.7289377289376,,0,-1,1768789948.620361
1768789948628.1738,1534.065934065934,,0,-1,1768789948.6281738
1768789948635.9863,1530.4029304029302,,0,-1,1768789948.6359863
1768789948643.7988,1523.8095238095236,,0,-1,1768789948.6437988
1768789948651.611,1519.4139194139193,,0,-1,1768789948.651611
1768789948659.4238,1516.4835164835165,,0,-1,1768789948.6594238
1768789948667.2363,1519.4139194139193,,0,-1,1768789948.6672363
1768789948675.0488,1521.6117216117216,,0,-1,1768789948.6750488
1768789948682.861,1517.9487179487178,,0,-1,1768789948.682861
1768789948690.6738,1513.5531135531137,,0,-1,1768789948.6906738
1768789948698.4863,1508.4249084249084,,0,-1,1768789948.6984863
1768789948706.2988,1504.0293040293038,,0,-1,1768789948.7062988
1768789948714.111,1498.9010989010987,,0,-1,1768789948.714111
1768789948721.9238,1492.3076923076922,,0,-1,1768789948.7219238
