"sep=	"
Shimmer_6815_Timestamp_Unix_CAL	Shimmer_6815_PPG_A13_CAL	
ms	mV	
1.7685085844638977E12	0.0	
1.7685085844717102E12	0.0	
1.7685085844795227E12	0.0	
1.7685085844873352E12	0.0	
1.7685085844951477E12	0.0	
1.7685085845029602E12	0.0	
1.7685085845107727E12	0.0	
1.7685085845185852E12	0.0	
1.7685085845263977E12	0.0	
1.7685085845342102E12	0.0	
1.7685085845420227E12	0.0	
1.7685085845498352E12	0.0	
1.7685085845576477E12	0.0	
1.7685085845654602E12	0.0	
1.7685085845732727E12	0.0	
1.7685085845810852E12	0.0	
1.7685085845888977E12	0.0	
1.7685085845967102E12	0.0	
1.7685085846045227E12	0.0	
1.7685085846123352E12	0.0	
1.7685085846201477E12	0.0	
1.7685085846279602E12	0.0	
1.7685085846357727E12	0.0	
1.7685085846435852E12	0.0	
1.7685085846513977E12	0.0	
1.7685085846592102E12	0.0	
1.7685085846670227E12	0.0	
1.7685085846748352E12	0.0	
1.7685085846826477E12	0.0	
1.7685085846904602E12	0.0	
1.7685085846982727E12	0.0	
1.7685085847060852E12	0.0	
1.7685085847138977E12	0.0	
1.7685085847217102E12	0.0	
1.7685085847295227E12	0.0	
1.7685085847373352E12	0.0	
1.7685085847451477E12	0.0	
1.7685085847529602E12	0.0	
1.7685085847607727E12	0.0	
1.7685085847685852E12	0.0	
1.7685085847763977E12	0.0	
1.7685085847842102E12	0.0	
1.7685085847920227E12	0.0	
1.7685085847998352E12	0.0	
1.7685085848076477E12	0.0	
1.7685085848154602E12	0.0	
1.7685085848232727E12	0.0	
1.7685085848310852E12	0.0	
1.7685085848388977E12	0.0	
1.7685085848467102E12	0.0	
1.7685085848545227E12	0.0	
1.7685085848623352E12	0.0	
1.7685085848701477E12	0.0	
1.7685085848779602E12	0.0	
1.7685085848857727E12	0.0	
1.7685085848935852E12	0.0	
1.7685085849013977E12	0.0	
1.7685085849092102E12	0.0	
1.7685085849170227E12	0.0	
1.7685085849248352E12	0.0	
1.7685085849326477E12	0.0	
1.7685085849404602E12	0.0	
1.7685085849482727E12	0.0	
1.7685085849560852E12	0.0	
1.7685085849638977E12	0.0	
1.7685085849717102E12	0.0	
1.7685085849795227E12	0.0	
1.7685085849873352E12	0.0	
1.7685085849951477E12	0.0	
1.7685085850029602E12	0.0	
1.7685085850107727E12	0.0	
1.7685085850185852E12	0.0	
1.7685085850263977E12	0.0	
1.7685085850342102E12	0.0	
1.7685085850420227E12	0.0	
1.7685085850498352E12	0.0	
1.7685085850576477E12	0.0	
1.7685085850654602E12	0.0	
1.7685085850732727E12	0.0	
1.7685085850810852E12	0.0	
1.7685085850888977E12	0.0	
1.7685085850967102E12	0.0	
1.7685085851045227E12	0.0	
1.7685085851123352E12	0.0	
1.7685085851201477E12	0.0	
1.7685085851279602E12	0.0	
1.7685085851357727E12	0.0	
1.7685085851435852E12	0.0	
1.7685085851513977E12	0.0	
1.7685085851592102E12	0.0	
1.7685085851670227E12	0.0	
1.7685085851748352E12	0.0	
1.7685085851826477E12	0.0	
1.7685085851904602E12	0.0	
1.7685085851982727E12	0.0	
1.7685085852060852E12	0.0	
1.7685085852138977E12	0.0	
1.7685085852217102E12	0.0	
1.7685085852295227E12	0.0	
1.7685085852373352E12	0.0	
1.7685085852451477E12	0.0	
1.7685085852529602E12	0.0	
1.7685085852607727E12	0.0	
1.7685085852685852E12	0.0	
1.7685085852763977E12	0.0	
1.7685085852842102E12	0.0	
1.7685085852920227E12	0.0	
1.7685085852998352E12	0.0	
1.7685085853076477E12	0.0	
1.7685085853154602E12	0.0	
1.7685085853232727E12	0.0	
1.7685085853310852E12	0.0	
1.7685085853388977E12	0.0	
1.7685085853467102E12	0.0	
1.7685085853545227E12	0.0	
1.7685085853623352E12	0.0	
1.7685085853701477E12	0.0	
1.7685085853779602E12	0.0	
1.7685085853857727E12	0.0	
1.7685085853935852E12	0.0	
1.7685085854013977E12	0.0	
1.7685085854092102E12	0.0	
1.7685085854170227E12	0.0	
1.7685085854248352E12	0.0	
1.7685085854326477E12	0.0	
1.7685085854404602E12	0.0	
1.7685085854482727E12	0.0	
1.7685085854560852E12	0.0	
1.7685085854638977E12	0.0	
1.7685085854717102E12	0.0	
1.7685085854795227E12	0.0	
1.7685085854873352E12	0.0	
1.7685085854951477E12	0.0	
1.7685085855029602E12	0.0	
1.7685085855107727E12	0.0	
1.7685085855185852E12	0.0	
1.7685085855263977E12	0.0	
1.7685085855342102E12	0.0	
1.7685085855420227E12	0.0	
1.7685085855498352E12	0.0	
1.7685085855576477E12	0.0	
1.7685085855654602E12	0.0	
1.7685085855732727E12	0.0	
1.7685085855810852E12	0.0	
1.7685085855888977E12	0.0	
1.7685085855967102E12	0.0	
1.7685085856045227E12	0.0	
1.7685085856123352E12	0.0	
1.7685085856201477E12	0.0	
1.7685085856279602E12	0.0	
1.7685085856357727E12	0.0	
1.7685085856435852E12	0.0	
1.7685085856513977E12	0.0	
1.7685085856592102E12	0.0	
1.7685085856670227E12	0.0	
1.7685085856748352E12	0.0	
1.7685085856826477E12	0.0	
1.7685085856904602E12	0.0	
1.7685085856982727E12	0.0	
1.7685085857060852E12	0.0	
1.7685085857138977E12	0.0	
1.7685085857217102E12	0.0	
1.7685085857295227E12	0.0	
1.7685085857373352E12	0.0	
1.7685085857451477E12	0.0	
1.7685085857529602E12	0.0	
1.7685085857607727E12	0.0	
1.7685085857685852E12	0.0	
1.7685085857763977E12	0.0	
1.7685085857842102E12	0.0	
1.7685085857920227E12	0.0	
1.7685085857998352E12	0.0	
1.7685085858076477E12	0.0	
1.7685085858154602E12	0.0	
1.7685085858232727E12	0.0	
1.7685085858310852E12	0.0	
1.7685085858388977E12	0.0	
1.7685085858467102E12	0.0	
1.7685085858545227E12	0.0	
1.7685085858623352E12	0.0	
1.7685085858701477E12	0.0	
1.7685085858779602E12	0.0	
1.7685085858857727E12	0.0	
1.7685085858935852E12	0.0	
1.7685085859013977E12	0.0	
1.7685085859092102E12	0.0	
1.7685085859170227E12	0.0	
1.7685085859248352E12	0.0	
1.7685085859326477E12	0.0	
1.7685085859404602E12	0.0	
1.7685085859482727E12	0.0	
1.7685085859560852E12	0.0	
1.7685085859638977E12	0.0	
1.7685085859717102E12	0.0	
1.7685085859795227E12	0.0	
1.7685085859873352E12	0.0	
1.7685085859951477E12	0.0	
1.7685085860029602E12	0.0	
1.7685085860107727E12	0.0	
1.7685085860185852E12	0.0	
1.7685085860263977E12	0.0	
1.7685085860342102E12	0.0	
1.7685085860420227E12	0.0	
1.7685085860498352E12	0.0	
1.7685085860576477E12	0.0	
1.7685085860654602E12	0.0	
1.7685085860732727E12	0.0	
1.7685085860810852E12	0.0	
1.7685085860888977E12	0.0	
1.7685085860967102E12	0.0	
1.7685085861045227E12	0.0	
1.7685085861123352E12	0.0	
1.7685085861201477E12	0.0	
1.7685085861279602E12	0.0	
1.7685085861357727E12	0.0	
1.7685085861435852E12	0.0	
1.7685085861513977E12	0.0	
1.7685085861592102E12	0.0	
1.7685085861670227E12	0.0	
1.7685085861748352E12	0.0	
1.7685085861826477E12	0.0	
1.7685085861904602E12	0.0	
1.7685085861982727E12	0.0	
1.7685085862060852E12	0.0	
1.7685085862138977E12	0.0	
1.7685085862217102E12	0.0	
1.7685085862295227E12	0.0	
1.7685085862373352E12	0.0	
1.7685085862451477E12	0.0	
1.7685085862529602E12	0.0	
1.7685085862607727E12	0.0	
1.7685085862685852E12	0.0	
1.7685085862763977E12	0.0	
1.7685085862842102E12	0.0	
1.7685085862920227E12	0.0	
1.7685085862998352E12	0.0	
1.7685085863076477E12	0.0	
1.7685085863154602E12	8.79120879120879	
1.7685085863232727E12	91.57509157509156	
1.7685085863310852E12	210.98901098901098	
1.7685085863388977E12	350.9157509157509	
1.7685085863467102E12	485.71428571428567	
1.7685085863545227E12	618.3150183150183	
1.7685085863623352E12	734.065934065934	
1.7685085863701477E12	844.6886446886447	
1.7685085863779602E12	942.124542124542	
1.7685085863857727E12	1024.9084249084249	
1.7685085863935852E12	1095.2380952380952	
1.7685085864013977E12	1156.0439560439559	
1.7685085864092102E12	1204.3956043956043	
1.7685085864170227E12	1243.956043956044	
1.7685085864248352E12	1276.1904761904761	
1.7685085864326477E12	1296.7032967032967	
1.7685085864404602E12	1317.216117216117	
1.7685085864482727E12	1330.4029304029302	
1.7685085864560852E12	1345.7875457875457	
1.7685085864638977E12	1355.3113553113553	
1.7685085864717102E12	1364.102564102564	
1.7685085864795227E12	1369.230769230769	
1.7685085864873352E12	1369.230769230769	
1.7685085864951477E12	1370.6959706959706	
1.7685085865029602E12	1367.032967032967	
1.7685085865107727E12	1364.102564102564	
1.7685085865185852E12	1356.7765567765566	
1.7685085865263977E12	1352.3809523809523	
1.7685085865342102E12	1344.3223443223442	
1.7685085865420227E12	1341.3919413919414	
1.7685085865498352E12	1336.9963369963368	
1.7685085865576477E12	1337.7289377289376	
1.7685085865654602E12	1335.5311355311355	
1.7685085865732727E12	1337.7289377289376	
1.7685085865810852E12	1336.9963369963368	
1.7685085865888977E12	1334.065934065934	
1.7685085865967102E12	1340.6593406593406	
1.7685085866045227E12	1344.3223443223442	
1.7685085866123352E12	1350.18315018315	
1.7685085866201477E12	1352.3809523809523	
1.7685085866279602E12	1355.3113553113553	
1.7685085866357727E12	1353.113553113553	
1.7685085866435852E12	1350.9157509157508	
1.7685085866513977E12	1345.7875457875457	
1.7685085866592102E12	1336.263736263736	
1.7685085866670227E12	1328.937728937729	
1.7685085866748352E12	1319.4139194139193	
1.7685085866826477E12	1312.087912087912	
1.7685085866904602E12	1300.3663003663003	
1.7685085866982727E12	1296.7032967032967	
1.7685085867060852E12	1291.5750915750914	
1.7685085867138977E12	1295.2380952380952	
1.7685085867217102E12	1295.2380952380952	
1.7685085867295227E12	1301.8315018315018	
1.7685085867373352E12	1304.0293040293038	
1.7685085867451477E12	1306.9597069597069	
1.7685085867529602E12	1310.6227106227104	
1.7685085867607727E12	1313.5531135531135	
1.7685085867685852E12	1320.8791208791208	
1.7685085867763977E12	1323.8095238095236	
1.7685085867842102E12	1330.4029304029302	
1.7685085867920227E12	1330.4029304029302	
1.7685085867998352E12	1335.5311355311355	
1.7685085868076477E12	1336.263736263736	
1.7685085868154602E12	1339.9267399267399	
1.7685085868232727E12	1335.5311355311355	
1.7685085868310852E12	1333.3333333333333	
1.7685085868388977E12	1321.6117216117216	
1.7685085868467102E12	1312.087912087912	
1.7685085868545227E12	1301.098901098901	
1.7685085868623352E12	1294.5054945054944	
1.7685085868701477E12	1290.10989010989	
1.7685085868779602E12	1293.040293040293	
1.7685085868857727E12	1296.7032967032967	
1.7685085868935852E12	1306.9597069597069	
1.7685085869013977E12	1313.5531135531135	
1.7685085869092102E12	1321.6117216117216	
1.7685085869170227E12	1329.6703296703297	
1.7685085869248352E12	1331.8681318681317	
1.7685085869326477E12	1333.3333333333333	
1.7685085869404602E12	1331.8681318681317	
1.7685085869482727E12	1327.4725274725274	
1.7685085869560852E12	1320.14652014652	
1.7685085869638977E12	1313.5531135531135	
1.7685085869717102E12	1301.098901098901	
1.7685085869795227E12	1290.8424908424909	
1.7685085869873352E12	1276.923076923077	
1.7685085869951477E12	1269.5970695970695	
1.7685085870029602E12	1257.8754578754579	
1.7685085870107727E12	1252.7472527472526	
1.7685085870185852E12	1249.8168498168498	
1.7685085870263977E12	1248.3516483516482	
1.7685085870342102E12	1246.8864468864467	
1.7685085870420227E12	1245.4212454212454	
1.7685085870498352E12	1249.084249084249	
1.7685085870576477E12	1253.4798534798533	
1.7685085870654602E12	1261.5384615384614	
1.7685085870732727E12	1274.7252747252746	
1.7685085870810852E12	1286.4468864468863	
1.7685085870888977E12	1304.0293040293038	
1.7685085870967102E12	1320.14652014652	
1.7685085871045227E12	1335.5311355311355	
1.7685085871123352E12	1350.18315018315	
1.7685085871201477E12	1363.3699633699632	
1.7685085871279602E12	1378.021978021978	
1.7685085871357727E12	1394.139194139194	
1.7685085871435852E12	1405.128205128205	
1.7685085871513977E12	1414.6520146520145	
1.7685085871592102E12	1417.5824175824175	
1.7685085871670227E12	1423.4432234432234	
1.7685085871748352E12	1424.9084249084249	
1.7685085871826477E12	1424.1758241758241	
1.7685085871904602E12	1424.9084249084249	
1.7685085871982727E12	1427.8388278388277	
1.7685085872060852E12	1435.8974358974358	
1.7685085872138977E12	1441.7582417582416	
1.7685085872217102E12	1447.6190476190475	
1.7685085872295227E12	1450.5494505494505	
1.7685085872373352E12	1447.6190476190475	
1.7685085872451477E12	1448.3516483516482	
1.7685085872529602E12	1444.6886446886447	
1.7685085872607727E12	1444.6886446886447	
1.7685085872685852E12	1441.7582417582416	
1.7685085872763977E12	1440.2930402930401	
1.7685085872842102E12	1448.3516483516482	
1.7685085872920227E12	1451.2820512820513	
1.7685085872998352E12	1456.4102564102564	
1.7685085873076477E12	1458.6080586080584	
1.7685085873154602E12	1458.6080586080584	
1.7685085873232727E12	1460.07326007326	
1.7685085873310852E12	1454.9450549450548	
1.7685085873388977E12	1444.6886446886447	
1.7685085873467102E12	1437.3626373626373	
1.7685085873545227E12	1432.2344322344322	
1.7685085873623352E12	1428.5714285714284	
1.7685085873701477E12	1422.7106227106226	
1.7685085873779602E12	1417.5824175824175	
1.7685085873857727E12	1409.5238095238094	
1.7685085873935852E12	1405.128205128205	
1.7685085874013977E12	1397.8021978021977	
1.7685085874092102E12	1397.8021978021977	
1.7685085874170227E12	1398.5347985347985	
1.7685085874248352E12	1406.5934065934066	
1.7685085874326477E12	1409.5238095238094	
1.7685085874404602E12	1415.3846153846152	
1.7685085874482727E12	1416.117216117216	
1.7685085874560852E12	1417.5824175824175	
1.7685085874638977E12	1418.3150183150183	
1.7685085874717102E12	1414.6520146520145	
1.7685085874795227E12	1413.9194139194137	
1.7685085874873352E12	1411.7216117216117	
1.7685085874951477E12	1413.1868131868132	
1.7685085875029602E12	1410.989010989011	
1.7685085875107727E12	1408.7912087912086	
1.7685085875185852E12	1405.8608058608058	
1.7685085875263977E12	1398.5347985347985	
1.7685085875342102E12	1395.6043956043954	
1.7685085875420227E12	1389.0109890109889	
1.7685085875498352E12	1386.080586080586	
1.7685085875576477E12	1378.7545787545787	
1.7685085875654602E12	1376.5567765567764	
1.7685085875732727E12	1370.6959706959706	
1.7685085875810852E12	1369.230769230769	
1.7685085875888977E12	1368.4981684981683	
1.7685085875967102E12	1366.3003663003662	
1.7685085876045227E12	1369.230769230769	
1.7685085876123352E12	1368.4981684981683	
1.7685085876201477E12	1374.3589743589744	
1.7685085876279602E12	1376.5567765567764	
1.7685085876357727E12	1378.7545787545787	
1.7685085876435852E12	1378.7545787545787	
1.7685085876513977E12	1377.2893772893772	
1.7685085876592102E12	1371.4285714285713	
1.7685085876670227E12	1365.5677655677655	
1.7685085876748352E12	1356.7765567765566	
1.7685085876826477E12	1347.985347985348	
1.7685085876904602E12	1336.263736263736	
1.7685085876982727E12	1328.2051282051282	
1.7685085877060852E12	1317.216117216117	
1.7685085877138977E12	1309.89010989011	
1.7685085877217102E12	1306.227106227106	
1.7685085877295227E12	1300.3663003663003	
1.7685085877373352E12	1302.5641025641025	
1.7685085877451477E12	1301.098901098901	
1.7685085877529602E12	1303.2967032967033	
1.7685085877607727E12	1309.1575091575091	
1.7685085877685852E12	1312.087912087912	
1.7685085877763977E12	1320.8791208791208	
1.7685085877842102E12	1323.8095238095236	
1.7685085877920227E12	1320.8791208791208	
1.7685085877998352E12	1318.6813186813185	
1.7685085878076477E12	1312.8205128205127	
1.7685085878154602E12	1312.8205128205127	
1.7685085878232727E12	1311.3553113553112	
1.7685085878310852E12	1316.4835164835165	
1.7685085878388977E12	1315.7509157509157	
1.7685085878467102E12	1320.8791208791208	
1.7685085878545227E12	1322.3443223443223	
1.7685085878623352E12	1324.5421245421244	
1.7685085878701477E12	1324.5421245421244	
1.7685085878779602E12	1319.4139194139193	
1.7685085878857727E12	1316.4835164835165	
1.7685085878935852E12	1309.1575091575091	
1.7685085879013977E12	1298.9010989010987	
1.7685085879092102E12	1287.9120879120878	
1.7685085879170227E12	1278.3882783882782	
1.7685085879248352E12	1276.1904761904761	
1.7685085879326477E12	1273.260073260073	
1.7685085879404602E12	1273.260073260073	
1.7685085879482727E12	1274.7252747252746	
1.7685085879560852E12	1278.3882783882782	
1.7685085879638977E12	1279.8534798534797	
1.7685085879717102E12	1285.7142857142856	
1.7685085879795227E12	1289.3772893772893	
1.7685085879873352E12	1288.6446886446886	
1.7685085879951477E12	1290.8424908424909	
1.7685085880029602E12	1293.7728937728937	
1.7685085880107727E12	1295.2380952380952	
1.7685085880185852E12	1299.6336996336995	
1.7685085880263977E12	1306.9597069597069	
1.7685085880342102E12	1309.89010989011	
1.7685085880420227E12	1317.9487179487178	
1.7685085880498352E12	1331.135531135531	
1.7685085880576477E12	1342.8571428571427	
1.7685085880654602E12	1355.3113553113553	
1.7685085880732727E12	1368.4981684981683	
1.7685085880810852E12	1375.091575091575	
1.7685085880888977E12	1383.8827838827838	
1.7685085880967102E12	1394.8717948717947	
1.7685085881045227E12	1402.9304029304028	
1.7685085881123352E12	1413.9194139194137	
1.7685085881201477E12	1428.5714285714284	
1.7685085881279602E12	1439.5604395604394	
1.7685085881357727E12	1452.014652014652	
1.7685085881435852E12	1464.4688644688645	
1.7685085881513977E12	1470.3296703296703	
1.7685085881592102E12	1475.4578754578754	
1.7685085881670227E12	1479.120879120879	
1.7685085881748352E12	1480.5860805860805	
1.7685085881826477E12	1481.3186813186812	
1.7685085881904602E12	1477.6556776556777	
1.7685085881982727E12	1469.5970695970695	
1.7685085882060852E12	1458.6080586080584	
1.7685085882138977E12	1447.6190476190475	
1.7685085882217102E12	1440.2930402930401	
1.7685085882295227E12	1436.6300366300366	
1.7685085882373352E12	1431.5018315018315	
1.7685085882451477E12	1424.1758241758241	
1.7685085882529602E12	1414.6520146520145	
1.7685085882607727E12	1406.5934065934066	
1.7685085882685852E12	1406.5934065934066	
1.7685085882763977E12	1411.7216117216117	
1.7685085882842102E12	1417.5824175824175	
1.7685085882920227E12	1421.245421245421	
1.7685085882998352E12	1419.7802197802198	
1.7685085883076477E12	1419.7802197802198	
1.7685085883154602E12	1419.7802197802198	
1.7685085883232727E12	1418.3150183150183	
1.7685085883310852E12	1411.7216117216117	
1.7685085883388977E12	1405.128205128205	
1.7685085883467102E12	1397.8021978021977	
1.7685085883545227E12	1391.2087912087911	
1.7685085883623352E12	1386.8131868131868	
1.7685085883701477E12	1381.6849816849815	
1.7685085883779602E12	1375.091575091575	
1.7685085883857727E12	1374.3589743589744	
1.7685085883935852E12	1374.3589743589744	
1.7685085884013977E12	1376.5567765567764	
1.7685085884092102E12	1373.6263736263736	
1.7685085884170227E12	1372.8937728937728	
1.7685085884248352E12	1370.6959706959706	
1.7685085884326477E12	1367.7655677655678	
1.7685085884404602E12	1367.032967032967	
1.7685085884482727E12	1369.230769230769	
1.7685085884560852E12	1372.8937728937728	
1.7685085884638977E12	1375.091575091575	
1.7685085884717102E12	1375.8241758241757	
1.7685085884795227E12	1373.6263736263736	
1.7685085884873352E12	1369.230769230769	
1.7685085884951477E12	1362.6373626373625	
1.7685085885029602E12	1356.0439560439559	
1.7685085885107727E12	1350.18315018315	
1.7685085885185852E12	1340.6593406593406	
1.7685085885263977E12	1332.6007326007325	
1.7685085885342102E12	1328.937728937729	
1.7685085885420227E12	1331.135531135531	
1.7685085885498352E12	1335.5311355311355	
1.7685085885576477E12	1342.1245421245421	
1.7685085885654602E12	1349.4505494505493	
1.7685085885732727E12	1354.5787545787546	
1.7685085885810852E12	1356.0439560439559	
1.7685085885888977E12	1358.2417582417581	
1.7685085885967102E12	1360.4395604395604	
1.7685085886045227E12	1361.904761904762	
1.7685085886123352E12	1361.904761904762	
1.7685085886201477E12	1361.1721611721612	
1.7685085886279602E12	1360.4395604395604	
1.7685085886357727E12	1361.1721611721612	
1.7685085886435852E12	1359.7069597069597	
1.7685085886513977E12	1353.8461538461538	
1.7685085886592102E12	1347.985347985348	
1.7685085886670227E12	1340.6593406593406	
1.7685085886748352E12	1336.9963369963368	
1.7685085886826477E12	1334.7985347985348	
1.7685085886904602E12	1326.7399267399267	
1.7685085886982727E12	1318.6813186813185	
1.7685085887060852E12	1309.1575091575091	
1.7685085887138977E12	1301.098901098901	
1.7685085887217102E12	1295.970695970696	
1.7685085887295227E12	1296.7032967032967	
1.7685085887373352E12	1298.9010989010987	
1.7685085887451477E12	1301.8315018315018	
1.7685085887529602E12	1302.5641025641025	
1.7685085887607727E12	1301.8315018315018	
1.7685085887685852E12	1301.8315018315018	
1.7685085887763977E12	1299.6336996336995	
1.7685085887842102E12	1298.9010989010987	
1.7685085887920227E12	1297.4358974358975	
1.7685085887998352E12	1293.040293040293	
1.7685085888076477E12	1289.3772893772893	
1.7685085888154602E12	1287.179487179487	
1.7685085888232727E12	1287.179487179487	
1.7685085888310852E12	1288.6446886446886	
1.7685085888388977E12	1288.6446886446886	
1.7685085888467102E12	1290.10989010989	
1.7685085888545227E12	1290.8424908424909	
1.7685085888623352E12	1290.8424908424909	
1.7685085888701477E12	1287.9120879120878	
1.7685085888779602E12	1286.4468864468863	
1.7685085888857727E12	1285.7142857142856	
1.7685085888935852E12	1283.5164835164835	
1.7685085889013977E12	1281.3186813186812	
1.7685085889092102E12	1280.5860805860805	
1.7685085889170227E12	1281.3186813186812	
1.7685085889248352E12	1283.5164835164835	
1.7685085889326477E12	1288.6446886446886	
1.7685085889404602E12	1296.7032967032967	
1.7685085889482727E12	1305.4945054945053	
1.7685085889560852E12	1315.018315018315	
1.7685085889638977E12	1321.6117216117216	
1.7685085889717102E12	1328.937728937729	
1.7685085889795227E12	1337.7289377289376	
1.7685085889873352E12	1345.7875457875457	
1.7685085889951477E12	1352.3809523809523	
1.7685085890029602E12	1357.5091575091574	
1.7685085890107727E12	1358.974358974359	
1.7685085890185852E12	1359.7069597069597	
1.7685085890263977E12	1361.904761904762	
1.7685085890342102E12	1362.6373626373625	
1.7685085890420227E12	1366.3003663003662	
1.7685085890498352E12	1369.230769230769	
1.7685085890576477E12	1373.6263736263736	
1.7685085890654602E12	1380.2197802197802	
1.7685085890732727E12	1386.080586080586	
1.7685085890810852E12	1391.9413919413919	
1.7685085890888977E12	1397.069597069597	
1.7685085890967102E12	1399.2673992673992	
1.7685085891045227E12	1405.128205128205	
1.7685085891123352E12	1410.2564102564102	
1.7685085891201477E12	1413.1868131868132	
1.7685085891279602E12	1413.9194139194137	
1.7685085891357727E12	1413.1868131868132	
1.7685085891435852E12	1413.9194139194137	
1.7685085891513977E12	1412.4542124542124	
1.7685085891592102E12	1408.7912087912086	
1.7685085891670227E12	1403.6630036630036	
1.7685085891748352E12	1397.8021978021977	
1.7685085891826477E12	1389.7435897435896	
1.7685085891904602E12	1383.150183150183	
1.7685085891982727E12	1378.7545787545787	
1.7685085892060852E12	1379.4871794871794	
1.7685085892138977E12	1380.2197802197802	
1.7685085892217102E12	1378.7545787545787	
1.7685085892295227E12	1374.3589743589744	
1.7685085892373352E12	1372.161172161172	
1.7685085892451477E12	1369.230769230769	
1.7685085892529602E12	1367.7655677655678	
1.7685085892607727E12	1358.974358974359	
1.7685085892685852E12	1347.985347985348	
1.7685085892763977E12	1339.194139194139	
1.7685085892842102E12	1336.263736263736	
1.7685085892920227E12	1336.263736263736	
1.7685085892998352E12	1339.9267399267399	
1.7685085893076477E12	1343.5897435897434	
1.7685085893154602E12	1345.7875457875457	
1.7685085893232727E12	1347.2527472527472	
1.7685085893310852E12	1345.054945054945	
1.7685085893388977E12	1342.1245421245421	
1.7685085893467102E12	1338.4615384615383	
1.7685085893545227E12	1336.263736263736	
1.7685085893623352E12	1336.9963369963368	
1.7685085893701477E12	1338.4615384615383	
1.7685085893779602E12	1338.4615384615383	
1.7685085893857727E12	1340.6593406593406	
1.7685085893935852E12	1345.054945054945	
1.7685085894013977E12	1355.3113553113553	
1.7685085894092102E12	1367.7655677655678	
1.7685085894170227E12	1374.3589743589744	
1.7685085894248352E12	1372.8937728937728	
1.7685085894326477E12	1364.8351648351647	
1.7685085894404602E12	1355.3113553113553	
1.7685085894482727E12	1347.985347985348	
1.7685085894560852E12	1342.8571428571427	
1.7685085894638977E12	1336.9963369963368	
1.7685085894717102E12	1330.4029304029302	
1.7685085894795227E12	1324.5421245421244	
1.7685085894873352E12	1320.14652014652	
1.7685085894951477E12	1315.018315018315	
1.7685085895029602E12	1309.89010989011	
1.7685085895107727E12	1308.4249084249084	
1.7685085895185852E12	1308.4249084249084	
1.7685085895263977E12	1309.1575091575091	
1.7685085895342102E12	1312.8205128205127	
1.7685085895420227E12	1316.4835164835165	
1.7685085895498352E12	1316.4835164835165	
1.7685085895576477E12	1316.4835164835165	
1.7685085895654602E12	1317.9487179487178	
1.7685085895732727E12	1320.14652014652	
1.7685085895810852E12	1324.5421245421244	
1.7685085895888977E12	1329.6703296703297	
1.7685085895967102E12	1333.3333333333333	
1.7685085896045227E12	1334.065934065934	
1.7685085896123352E12	1331.135531135531	
1.7685085896201477E12	1329.6703296703297	
1.7685085896279602E12	1328.2051282051282	
1.7685085896357727E12	1324.5421245421244	
1.7685085896435852E12	1320.14652014652	
1.7685085896513977E12	1315.018315018315	
1.7685085896592102E12	1308.4249084249084	
1.7685085896670227E12	1305.4945054945053	
1.7685085896748352E12	1304.7619047619046	
1.7685085896826477E12	1304.0293040293038	
1.7685085896904602E12	1303.2967032967033	
1.7685085896982727E12	1302.5641025641025	
1.7685085897060852E12	1301.8315018315018	
1.7685085897138977E12	1296.7032967032967	
1.7685085897217102E12	1289.3772893772893	
1.7685085897295227E12	1282.7838827838827	
1.7685085897373352E12	1275.4578754578754	
1.7685085897451477E12	1271.062271062271	
1.7685085897529602E12	1271.062271062271	
1.7685085897607727E12	1277.6556776556777	
1.7685085897685852E12	1287.9120879120878	
1.7685085897763977E12	1296.7032967032967	
1.7685085897842102E12	1306.227106227106	
1.7685085897920227E12	1316.4835164835165	
1.7685085897998352E12	1326.7399267399267	
1.7685085898076477E12	1331.135531135531	
1.7685085898154602E12	1335.5311355311355	
1.7685085898232727E12	1343.5897435897434	
1.7685085898310852E12	1352.3809523809523	
1.7685085898388977E12	1364.8351648351647	
1.7685085898467102E12	1374.3589743589744	
1.7685085898545227E12	1380.952380952381	
1.7685085898623352E12	1387.5457875457876	
1.7685085898701477E12	1391.2087912087911	
1.7685085898779602E12	1394.139194139194	
1.7685085898857727E12	1394.139194139194	
1.7685085898935852E12	1390.4761904761904	
1.7685085899013977E12	1384.6153846153845	
1.7685085899092102E12	1383.150183150183	
1.7685085899170227E12	1384.6153846153845	
1.7685085899248352E12	1387.5457875457876	
1.7685085899326477E12	1394.8717948717947	
1.7685085899404602E12	1403.6630036630036	
1.7685085899482727E12	1411.7216117216117	
1.7685085899560852E12	1415.3846153846152	
1.7685085899638977E12	1416.117216117216	
1.7685085899717102E12	1414.6520146520145	
1.7685085899795227E12	1413.1868131868132	
1.7685085899873352E12	1410.989010989011	
1.7685085899951477E12	1409.5238095238094	
1.7685085900029602E12	1408.058608058608	
1.7685085900107727E12	1405.8608058608058	
1.7685085900185852E12	1404.3956043956043	
1.7685085900263977E12	1402.9304029304028	
1.7685085900342102E12	1402.197802197802	
1.7685085900420227E12	1405.8608058608058	
1.7685085900498352E12	1405.128205128205	
1.7685085900576477E12	1406.5934065934066	
1.7685085900654602E12	1408.058608058608	
1.7685085900732727E12	1408.7912087912086	
1.7685085900810852E12	1408.7912087912086	
1.7685085900888977E12	1404.3956043956043	
1.7685085900967102E12	1396.3369963369962	
1.7685085901045227E12	1387.5457875457876	
1.7685085901123352E12	1378.7545787545787	
1.7685085901201477E12	1369.230769230769	
1.7685085901279602E12	1356.7765567765566	
1.7685085901357727E12	1348.7179487179487	
1.7685085901435852E12	1347.2527472527472	
1.7685085901513977E12	1347.985347985348	
1.7685085901592102E12	1348.7179487179487	
1.7685085901670227E12	1348.7179487179487	
1.7685085901748352E12	1352.3809523809523	
1.7685085901826477E12	1355.3113553113553	
1.7685085901904602E12	1356.0439560439559	
1.7685085901982727E12	1356.0439560439559	
1.7685085902060852E12	1356.7765567765566	
1.7685085902138977E12	1361.1721611721612	
1.7685085902217102E12	1365.5677655677655	
1.7685085902295227E12	1367.032967032967	
1.7685085902373352E12	1364.102564102564	
1.7685085902451477E12	1358.974358974359	
1.7685085902529602E12	1356.7765567765566	
1.7685085902607727E12	1352.3809523809523	
1.7685085902685852E12	1346.5201465201465	
1.7685085902763977E12	1342.8571428571427	
1.7685085902842102E12	1341.3919413919414	
1.7685085902920227E12	1340.6593406593406	
1.7685085902998352E12	1336.9963369963368	
1.7685085903076477E12	1331.135531135531	
1.7685085903154602E12	1323.8095238095236	
1.7685085903232727E12	1320.14652014652	
1.7685085903310852E12	1318.6813186813185	
1.7685085903388977E12	1318.6813186813185	
1.7685085903467102E12	1319.4139194139193	
1.7685085903545227E12	1320.14652014652	
1.7685085903623352E12	1318.6813186813185	
1.7685085903701477E12	1316.4835164835165	
1.7685085903779602E12	1313.5531135531135	
1.7685085903857727E12	1312.087912087912	
1.7685085903935852E12	1312.8205128205127	
1.7685085904013977E12	1312.8205128205127	
1.7685085904092102E12	1315.7509157509157	
1.7685085904170227E12	1317.216117216117	
1.7685085904248352E12	1323.8095238095236	
1.7685085904326477E12	1329.6703296703297	
1.7685085904404602E12	1334.065934065934	
1.7685085904482727E12	1338.4615384615383	
1.7685085904560852E12	1337.7289377289376	
1.7685085904638977E12	1333.3333333333333	
1.7685085904717102E12	1325.2747252747251	
1.7685085904795227E12	1317.216117216117	
1.7685085904873352E12	1308.4249084249084	
1.7685085904951477E12	1297.4358974358975	
1.7685085905029602E12	1286.4468864468863	
1.7685085905107727E12	1273.260073260073	
1.7685085905185852E12	1263.7362637362637	
1.7685085905263977E12	1260.07326007326	
1.7685085905342102E12	1263.7362637362637	
1.7685085905420227E12	1274.7252747252746	
1.7685085905498352E12	1282.7838827838827	
1.7685085905576477E12	1289.3772893772893	
1.7685085905654602E12	1295.2380952380952	
1.7685085905732727E12	1298.9010989010987	
1.7685085905810852E12	1299.6336996336995	
1.7685085905888977E12	1299.6336996336995	
1.7685085905967102E12	1298.168498168498	
1.7685085906045227E12	1293.7728937728937	
1.7685085906123352E12	1288.6446886446886	
1.7685085906201477E12	1287.179487179487	
1.7685085906279602E12	1289.3772893772893	
1.7685085906357727E12	1290.10989010989	
1.7685085906435852E12	1291.5750915750914	
1.7685085906513977E12	1293.7728937728937	
1.7685085906592102E12	1299.6336996336995	
1.7685085906670227E12	1308.4249084249084	
1.7685085906748352E12	1315.018315018315	
1.7685085906826477E12	1321.6117216117216	
1.7685085906904602E12	1330.4029304029302	
1.7685085906982727E12	1338.4615384615383	
1.7685085907060852E12	1342.8571428571427	
1.7685085907138977E12	1346.5201465201465	
1.7685085907217102E12	1348.7179487179487	
1.7685085907295227E12	1351.6483516483515	
1.7685085907373352E12	1356.0439560439559	
1.7685085907451477E12	1362.6373626373625	
1.7685085907529602E12	1370.6959706959706	
1.7685085907607727E12	1383.8827838827838	
1.7685085907685852E12	1399.2673992673992	
1.7685085907763977E12	1410.989010989011	
1.7685085907842102E12	1420.5128205128203	
1.7685085907920227E12	1432.9670329670328	
1.7685085907998352E12	1446.8864468864467	
1.7685085908076477E12	1454.212454212454	
1.7685085908154602E12	1457.142857142857	
1.7685085908232727E12	1454.212454212454	
1.7685085908310852E12	1449.8168498168498	
1.7685085908388977E12	1446.153846153846	
1.7685085908467102E12	1443.2234432234432	
1.7685085908545227E12	1438.095238095238	
1.7685085908623352E12	1434.4322344322343	
1.7685085908701477E12	1431.5018315018315	
1.7685085908779602E12	1426.3736263736262	
1.7685085908857727E12	1424.1758241758241	
1.7685085908935852E12	1427.8388278388277	
1.7685085909013977E12	1430.7692307692307	
1.7685085909092102E12	1432.9670329670328	
1.7685085909170227E12	1433.6996336996335	
1.7685085909248352E12	1430.7692307692307	
1.7685085909326477E12	1427.106227106227	
1.7685085909404602E12	1419.047619047619	
1.7685085909482727E12	1406.5934065934066	
1.7685085909560852E12	1396.3369963369962	
1.7685085909638977E12	1386.8131868131868	
1.7685085909717102E12	1379.4871794871794	
1.7685085909795227E12	1374.3589743589744	
1.7685085909873352E12	1367.7655677655678	
1.7685085909951477E12	1361.904761904762	
1.7685085910029602E12	1357.5091575091574	
1.7685085910107727E12	1354.5787545787546	
1.7685085910185852E12	1348.7179487179487	
1.7685085910263977E12	1346.5201465201465	
1.7685085910342102E12	1345.7875457875457	
1.7685085910420227E12	1345.054945054945	
1.7685085910498352E12	1344.3223443223442	
1.7685085910576477E12	1347.985347985348	
1.7685085910654602E12	1353.8461538461538	
1.7685085910732727E12	1357.5091575091574	
1.7685085910810852E12	1364.8351648351647	
1.7685085910888977E12	1374.3589743589744	
1.7685085910967102E12	1380.952380952381	
1.7685085911045227E12	1388.278388278388	
1.7685085911123352E12	1394.8717948717947	
1.7685085911201477E12	1397.069597069597	
1.7685085911279602E12	1391.2087912087911	
1.7685085911357727E12	1383.8827838827838	
1.7685085911435852E12	1375.8241758241757	
1.7685085911513977E12	1369.230769230769	
1.7685085911592102E12	1361.904761904762	
1.7685085911670227E12	1353.8461538461538	
1.7685085911748352E12	1352.3809523809523	
1.7685085911826477E12	1349.4505494505493	
1.7685085911904602E12	1349.4505494505493	
1.7685085911982727E12	1353.8461538461538	
1.7685085912060852E12	1356.0439560439559	
1.7685085912138977E12	1356.7765567765566	
1.7685085912217102E12	1356.7765567765566	
1.7685085912295227E12	1352.3809523809523	
1.7685085912373352E12	1348.7179487179487	
1.7685085912451477E12	1346.5201465201465	
1.7685085912529602E12	1341.3919413919414	
1.7685085912607727E12	1331.8681318681317	
1.7685085912685852E12	1326.7399267399267	
1.7685085912763977E12	1323.076923076923	
1.7685085912842102E12	1315.7509157509157	
1.7685085912920227E12	1317.9487179487178	
1.7685085912998352E12	1315.7509157509157	
1.7685085913076477E12	1314.2857142857142	
1.7685085913154602E12	1318.6813186813185	
1.7685085913232727E12	1322.3443223443223	
1.7685085913310852E12	1323.076923076923	
1.7685085913388977E12	1326.7399267399267	
1.7685085913467102E12	1328.937728937729	
1.7685085913545227E12	1327.4725274725274	
1.7685085913623352E12	1328.937728937729	
1.7685085913701477E12	1329.6703296703297	
1.7685085913779602E12	1326.7399267399267	
1.7685085913857727E12	1320.8791208791208	
1.7685085913935852E12	1315.7509157509157	
1.7685085914013977E12	1311.3553113553112	
1.7685085914092102E12	1304.0293040293038	
1.7685085914170227E12	1302.5641025641025	
1.7685085914248352E12	1301.8315018315018	
1.7685085914326477E12	1297.4358974358975	
1.7685085914404602E12	1296.7032967032967	
1.7685085914482727E12	1295.2380952380952	
1.7685085914560852E12	1287.9120879120878	
1.7685085914638977E12	1284.2490842490843	
1.7685085914717102E12	1279.120879120879	
1.7685085914795227E12	1271.7948717948716	
1.7685085914873352E12	1268.131868131868	
1.7685085914951477E12	1268.131868131868	
1.7685085915029602E12	1268.131868131868	
1.7685085915107727E12	1272.5274725274724	
1.7685085915185852E12	1271.7948717948716	
1.7685085915263977E12	1274.7252747252746	
1.7685085915342102E12	1274.7252747252746	
1.7685085915420227E12	1282.7838827838827	
1.7685085915498352E12	1287.9120879120878	
1.7685085915576477E12	1293.7728937728937	
1.7685085915654602E12	1302.5641025641025	
1.7685085915732727E12	1307.6923076923076	
1.7685085915810852E12	1308.4249084249084	
1.7685085915888977E12	1307.6923076923076	
1.7685085915967102E12	1309.1575091575091	
1.7685085916045227E12	1306.9597069597069	
1.7685085916123352E12	1309.1575091575091	
1.7685085916201477E12	1317.216117216117	
1.7685085916279602E12	1326.007326007326	
1.7685085916357727E12	1337.7289377289376	
1.7685085916435852E12	1351.6483516483515	
1.7685085916513977E12	1362.6373626373625	
1.7685085916592102E12	1373.6263736263736	
1.7685085916670227E12	1386.080586080586	
1.7685085916748352E12	1394.8717948717947	
1.7685085916826477E12	1410.2564102564102	
1.7685085916904602E12	1423.4432234432234	
1.7685085916982727E12	1435.8974358974358	
1.7685085917060852E12	1449.084249084249	
1.7685085917138977E12	1455.6776556776556	
1.7685085917217102E12	1465.201465201465	
1.7685085917295227E12	1472.5274725274724	
1.7685085917373352E12	1476.923076923077	
1.7685085917451477E12	1482.7838827838827	
1.7685085917529602E12	1482.7838827838827	
1.7685085917607727E12	1485.7142857142856	
1.7685085917685852E12	1489.3772893772893	
1.7685085917763977E12	1490.8424908424906	
1.7685085917842102E12	1492.3076923076922	
1.7685085917920227E12	1495.970695970696	
1.7685085917998352E12	1502.5641025641025	
1.7685085918076477E12	1501.8315018315018	
1.7685085918154602E12	1504.7619047619046	
1.7685085918232727E12	1500.3663003663003	
1.7685085918310852E12	1491.5750915750914	
1.7685085918388977E12	1487.179487179487	
1.7685085918467102E12	1476.923076923077	
1.7685085918545227E12	1469.5970695970695	
1.7685085918623352E12	1461.5384615384614	
1.7685085918701477E12	1457.8754578754579	
1.7685085918779602E12	1457.142857142857	
1.7685085918857727E12	1453.4798534798533	
1.7685085918935852E12	1455.6776556776556	
1.7685085919013977E12	1454.212454212454	
1.7685085919092102E12	1451.2820512820513	
1.7685085919170227E12	1452.014652014652	
1.7685085919248352E12	1450.5494505494505	
1.7685085919326477E12	1453.4798534798533	
1.7685085919404602E12	1453.4798534798533	
1.7685085919482727E12	1453.4798534798533	
1.7685085919560852E12	1450.5494505494505	
1.7685085919638977E12	1448.3516483516482	
1.7685085919717102E12	1445.4212454212454	
1.7685085919795227E12	1441.7582417582416	
1.7685085919873352E12	1438.095238095238	
1.7685085919951477E12	1428.5714285714284	
1.7685085920029602E12	1425.6410256410256	
1.7685085920107727E12	1421.9780219780218	
1.7685085920185852E12	1417.5824175824175	
1.7685085920263977E12	1410.989010989011	
1.7685085920342102E12	1407.3260073260071	
1.7685085920420227E12	1402.197802197802	
1.7685085920498352E12	1403.6630036630036	
1.7685085920576477E12	1402.197802197802	
1.7685085920654602E12	1397.8021978021977	
1.7685085920732727E12	1394.8717948717947	
1.7685085920810852E12	1392.6739926739926	
1.7685085920888977E12	1389.7435897435896	
1.7685085920967102E12	1387.5457875457876	
1.7685085921045227E12	1381.6849816849815	
1.7685085921123352E12	1380.2197802197802	
1.7685085921201477E12	1377.2893772893772	
1.7685085921279602E12	1380.2197802197802	
1.7685085921357727E12	1378.7545787545787	
1.7685085921435852E12	1383.8827838827838	
1.7685085921513977E12	1380.952380952381	
1.7685085921592102E12	1378.7545787545787	
1.7685085921670227E12	1372.8937728937728	
1.7685085921748352E12	1367.7655677655678	
1.7685085921826477E12	1364.102564102564	
1.7685085921904602E12	1361.1721611721612	
1.7685085921982727E12	1362.6373626373625	
1.7685085922060852E12	1357.5091575091574	
1.7685085922138977E12	1357.5091575091574	
1.7685085922217102E12	1353.113553113553	
1.7685085922295227E12	1352.3809523809523	
1.7685085922373352E12	1349.4505494505493	
1.7685085922451477E12	1350.9157509157508	
1.7685085922529602E12	1345.054945054945	
1.7685085922607727E12	1346.5201465201465	
1.7685085922685852E12	1342.8571428571427	
1.7685085922763977E12	1345.7875457875457	
1.7685085922842102E12	1342.8571428571427	
1.7685085922920227E12	1341.3919413919414	
1.7685085922998352E12	1336.263736263736	
1.7685085923076477E12	1336.263736263736	
1.7685085923154602E12	1331.135531135531	
1.7685085923232727E12	1331.8681318681317	
1.7685085923310852E12	1329.6703296703297	
1.7685085923388977E12	1328.937728937729	
1.7685085923467102E12	1326.7399267399267	
1.7685085923545227E12	1323.8095238095236	
1.7685085923623352E12	1323.8095238095236	
1.7685085923701477E12	1317.9487179487178	
1.7685085923779602E12	1318.6813186813185	
1.7685085923857727E12	1315.7509157509157	
1.7685085923935852E12	1316.4835164835165	
1.7685085924013977E12	1313.5531135531135	
1.7685085924092102E12	1315.018315018315	
1.7685085924170227E12	1309.89010989011	
1.7685085924248352E12	1309.1575091575091	
1.7685085924326477E12	1305.4945054945053	
1.7685085924404602E12	1306.227106227106	
1.7685085924482727E12	1304.7619047619046	
1.7685085924560852E12	1307.6923076923076	
1.7685085924638977E12	1307.6923076923076	
1.7685085924717102E12	1309.89010989011	
1.7685085924795227E12	1312.8205128205127	
1.7685085924873352E12	1312.087912087912	
1.7685085924951477E12	1314.2857142857142	
1.7685085925029602E12	1310.6227106227104	
1.7685085925107727E12	1308.4249084249084	
1.7685085925185852E12	1301.8315018315018	
1.7685085925263977E12	1300.3663003663003	
1.7685085925342102E12	1298.168498168498	
1.7685085925420227E12	1293.7728937728937	
1.7685085925498352E12	1291.5750915750914	
1.7685085925576477E12	1286.4468864468863	
1.7685085925654602E12	1293.7728937728937	
1.7685085925732727E12	1300.3663003663003	
1.7685085925810852E12	1311.3553113553112	
1.7685085925888977E12	1318.6813186813185	
1.7685085925967102E12	1331.8681318681317	
1.7685085926045227E12	1342.1245421245421	
1.7685085926123352E12	1356.0439560439559	
1.7685085926201477E12	1364.8351648351647	
1.7685085926279602E12	1380.2197802197802	
1.7685085926357727E12	1389.0109890109889	
1.7685085926435852E12	1404.3956043956043	
1.7685085926513977E12	1412.4542124542124	
1.7685085926592102E12	1423.4432234432234	
1.7685085926670227E12	1432.2344322344322	
1.7685085926748352E12	1446.153846153846	
1.7685085926826477E12	1457.8754578754579	
1.7685085926904602E12	1471.062271062271	
1.7685085926982727E12	1475.4578754578754	
1.7685085927060852E12	1482.7838827838827	
1.7685085927138977E12	1482.051282051282	
1.7685085927217102E12	1487.179487179487	
1.7685085927295227E12	1487.179487179487	
1.7685085927373352E12	1493.7728937728937	
1.7685085927451477E12	1498.168498168498	
1.7685085927529602E12	1500.3663003663003	
1.7685085927607727E12	1501.098901098901	
1.7685085927685852E12	1502.5641025641025	
1.7685085927763977E12	1507.6923076923076	
1.7685085927842102E12	1512.087912087912	
1.7685085927920227E12	1518.6813186813185	
1.7685085927998352E12	1517.216117216117	
1.7685085928076477E12	1520.8791208791208	
1.7685085928154602E12	1520.8791208791208	
1.7685085928232727E12	1526.7399267399267	
1.7685085928310852E12	1526.007326007326	
1.7685085928388977E12	1528.937728937729	
1.7685085928467102E12	1522.3443223443223	
1.7685085928545227E12	1515.7509157509157	
1.7685085928623352E12	1503.2967032967033	
1.7685085928701477E12	1493.7728937728937	
1.7685085928779602E12	1479.120879120879	
1.7685085928857727E12	1465.9340659340658	
1.7685085928935852E12	1448.3516483516482	
1.7685085929013977E12	1441.7582417582416	
1.7685085929092102E12	1438.8278388278388	
1.7685085929170227E12	1440.2930402930401	
1.7685085929248352E12	1447.6190476190475	
1.7685085929326477E12	1449.084249084249	
1.7685085929404602E12	1456.4102564102564	
1.7685085929482727E12	1455.6776556776556	
1.7685085929560852E12	1457.142857142857	
1.7685085929638977E12	1450.5494505494505	
1.7685085929717102E12	1447.6190476190475	
1.7685085929795227E12	1440.2930402930401	
1.7685085929873352E12	1438.095238095238	
1.7685085929951477E12	1431.5018315018315	
1.7685085930029602E12	1432.9670329670328	
1.7685085930107727E12	1430.03663003663	
1.7685085930185852E12	1432.9670329670328	
1.7685085930263977E12	1432.9670329670328	
1.7685085930342102E12	1438.095238095238	
1.7685085930420227E12	1440.2930402930401	
1.7685085930498352E12	1438.8278388278388	
1.7685085930576477E12	1437.3626373626373	
1.7685085930654602E12	1434.4322344322343	
1.7685085930732727E12	1427.106227106227	
1.7685085930810852E12	1424.1758241758241	
1.7685085930888977E12	1416.117216117216	
1.7685085930967102E12	1416.8498168498168	
1.7685085931045227E12	1414.6520146520145	
1.7685085931123352E12	1417.5824175824175	
1.7685085931201477E12	1416.8498168498168	
1.7685085931279602E12	1419.7802197802198	
1.7685085931357727E12	1418.3150183150183	
1.7685085931435852E12	1413.9194139194137	
1.7685085931513977E12	1410.2564102564102	
1.7685085931592102E12	1402.197802197802	
1.7685085931670227E12	1400.0	
1.7685085931748352E12	1394.139194139194	
1.7685085931826477E12	1392.6739926739926	
1.7685085931904602E12	1386.080586080586	
1.7685085931982727E12	1386.080586080586	
1.7685085932060852E12	1380.952380952381	
1.7685085932138977E12	1384.6153846153845	
1.7685085932217102E12	1384.6153846153845	
1.7685085932295227E12	1387.5457875457876	
1.7685085932373352E12	1390.4761904761904	
1.7685085932451477E12	1392.6739926739926	
1.7685085932529602E12	1392.6739926739926	
1.7685085932607727E12	1394.8717948717947	
1.7685085932685852E12	1392.6739926739926	
1.7685085932763977E12	1388.278388278388	
1.7685085932842102E12	1388.278388278388	
1.7685085932920227E12	1391.2087912087911	
1.7685085932998352E12	1391.2087912087911	
1.7685085933076477E12	1391.2087912087911	
1.7685085933154602E12	1387.5457875457876	
1.7685085933232727E12	1382.4175824175823	
1.7685085933310852E12	1376.5567765567764	
1.7685085933388977E12	1369.9633699633698	
1.7685085933467102E12	1365.5677655677655	
1.7685085933545227E12	1358.974358974359	
1.7685085933623352E12	1352.3809523809523	
1.7685085933701477E12	1345.7875457875457	
1.7685085933779602E12	1342.1245421245421	
1.7685085933857727E12	1336.263736263736	
1.7685085933935852E12	1328.2051282051282	
1.7685085934013977E12	1320.8791208791208	
1.7685085934092102E12	1312.087912087912	
1.7685085934170227E12	1303.2967032967033	
1.7685085934248352E12	1301.8315018315018	
1.7685085934326477E12	1297.4358974358975	
1.7685085934404602E12	1298.168498168498	
1.7685085934482727E12	1294.5054945054944	
1.7685085934560852E12	1293.040293040293	
1.7685085934638977E12	1288.6446886446886	
1.7685085934717102E12	1285.7142857142856	
1.7685085934795227E12	1287.9120879120878	
1.7685085934873352E12	1288.6446886446886	
1.7685085934951477E12	1291.5750915750914	
1.7685085935029602E12	1293.7728937728937	
1.7685085935107727E12	1301.098901098901	
1.7685085935185852E12	1304.0293040293038	
1.7685085935263977E12	1310.6227106227104	
1.7685085935342102E12	1312.8205128205127	
1.7685085935420227E12	1314.2857142857142	
1.7685085935498352E12	1320.8791208791208	
1.7685085935576477E12	1320.8791208791208	
1.7685085935654602E12	1326.007326007326	
1.7685085935732727E12	1328.2051282051282	
1.7685085935810852E12	1332.6007326007325	
1.7685085935888977E12	1339.194139194139	
1.7685085935967102E12	1343.5897435897434	
1.7685085936045227E12	1352.3809523809523	
1.7685085936123352E12	1358.2417582417581	
1.7685085936201477E12	1369.9633699633698	
1.7685085936279602E12	1375.8241758241757	
1.7685085936357727E12	1386.8131868131868	
1.7685085936435852E12	1394.139194139194	
1.7685085936513977E12	1402.9304029304028	
1.7685085936592102E12	1413.1868131868132	
1.7685085936670227E12	1419.047619047619	
1.7685085936748352E12	1429.3040293040292	
1.7685085936826477E12	1435.8974358974358	
1.7685085936904602E12	1446.153846153846	
1.7685085936982727E12	1454.212454212454	
1.7685085937060852E12	1463.7362637362637	
1.7685085937138977E12	1468.8644688644688	
1.7685085937217102E12	1481.3186813186812	
1.7685085937295227E12	1489.3772893772893	
1.7685085937373352E12	1499.6336996336995	
1.7685085937451477E12	1508.4249084249084	
1.7685085937529602E12	1511.3553113553112	
1.7685085937607727E12	1513.5531135531135	
1.7685085937685852E12	1510.6227106227104	
1.7685085937763977E12	1504.7619047619046	
1.7685085937842102E12	1502.5641025641025	
1.7685085937920227E12	1501.098901098901	
1.7685085937998352E12	1497.4358974358972	
1.7685085938076477E12	1497.4358974358972	
1.7685085938154602E12	1499.6336996336995	
1.7685085938232727E12	1498.168498168498	
1.7685085938310852E12	1501.8315018315018	
1.7685085938388977E12	1502.5641025641025	
1.7685085938467102E12	1502.5641025641025	
1.7685085938545227E12	1505.4945054945053	
1.7685085938623352E12	1509.89010989011	
1.7685085938701477E12	1517.9487179487178	
1.7685085938779602E12	1517.216117216117	
1.7685085938857727E12	1520.14652014652	
1.7685085938935852E12	1516.4835164835163	
1.7685085939013977E12	1517.9487179487178	
1.7685085939092102E12	1517.216117216117	
1.7685085939170227E12	1512.087912087912	
1.7685085939248352E12	1510.6227106227104	
1.7685085939326477E12	1498.9010989010987	
1.7685085939404602E12	1487.9120879120878	
1.7685085939482727E12	1469.5970695970695	
1.7685085939560852E12	1457.8754578754579	
1.7685085939638977E12	1443.956043956044	
1.7685085939717102E12	1438.8278388278388	
1.7685085939795227E12	1433.6996336996335	
1.7685085939873352E12	1434.4322344322343	
1.7685085939951477E12	1427.8388278388277	
1.7685085940029602E12	1427.106227106227	
1.7685085940107727E12	1424.1758241758241	
1.7685085940185852E12	1429.3040293040292	
1.7685085940263977E12	1431.5018315018315	
1.7685085940342102E12	1432.2344322344322	
1.7685085940420227E12	1430.03663003663	
1.7685085940498352E12	1424.9084249084249	
1.7685085940576477E12	1420.5128205128203	
1.7685085940654602E12	1419.047619047619	
1.7685085940732727E12	1419.047619047619	
1.7685085940810852E12	1423.4432234432234	
1.7685085940888977E12	1430.03663003663	
1.7685085940967102E12	1427.106227106227	
1.7685085941045227E12	1423.4432234432234	
1.7685085941123352E12	1417.5824175824175	
1.7685085941201477E12	1408.7912087912086	
1.7685085941279602E12	1405.128205128205	
1.7685085941357727E12	1399.2673992673992	
1.7685085941435852E12	1390.4761904761904	
1.7685085941513977E12	1382.4175824175823	
1.7685085941592102E12	1370.6959706959706	
1.7685085941670227E12	1364.102564102564	
1.7685085941748352E12	1356.7765567765566	
1.7685085941826477E12	1356.7765567765566	
1.7685085941904602E12	1358.2417582417581	
1.7685085941982727E12	1356.0439560439559	
1.7685085942060852E12	1357.5091575091574	
1.7685085942138977E12	1353.8461538461538	
1.7685085942217102E12	1354.5787545787546	
1.7685085942295227E12	1355.3113553113553	
1.7685085942373352E12	1356.7765567765566	
1.7685085942451477E12	1361.1721611721612	
1.7685085942529602E12	1361.1721611721612	
1.7685085942607727E12	1364.102564102564	
1.7685085942685852E12	1366.3003663003662	
1.7685085942763977E12	1367.032967032967	
1.7685085942842102E12	1369.230769230769	
1.7685085942920227E12	1367.7655677655678	
1.7685085942998352E12	1372.8937728937728	
1.7685085943076477E12	1373.6263736263736	
1.7685085943154602E12	1375.091575091575	
1.7685085943232727E12	1372.8937728937728	
1.7685085943310852E12	1369.9633699633698	
1.7685085943388977E12	1367.032967032967	
1.7685085943467102E12	1361.904761904762	
1.7685085943545227E12	1358.974358974359	
1.7685085943623352E12	1350.9157509157508	
1.7685085943701477E12	1347.2527472527472	
1.7685085943779602E12	1339.194139194139	
1.7685085943857727E12	1333.3333333333333	
1.7685085943935852E12	1330.4029304029302	
1.7685085944013977E12	1323.076923076923	
1.7685085944092102E12	1321.6117216117216	
1.7685085944170227E12	1317.9487179487178	
1.7685085944248352E12	1311.3553113553112	
1.7685085944326477E12	1309.89010989011	
1.7685085944404602E12	1305.4945054945053	
1.7685085944482727E12	1308.4249084249084	
1.7685085944560852E12	1308.4249084249084	
1.7685085944638977E12	1313.5531135531135	
1.7685085944717102E12	1322.3443223443223	
1.7685085944795227E12	1328.2051282051282	
1.7685085944873352E12	1335.5311355311355	
1.7685085944951477E12	1341.3919413919414	
1.7685085945029602E12	1341.3919413919414	
1.7685085945107727E12	1336.263736263736	
1.7685085945185852E12	1330.4029304029302	
1.7685085945263977E12	1326.007326007326	
1.7685085945342102E12	1318.6813186813185	
1.7685085945420227E12	1316.4835164835165	
1.7685085945498352E12	1320.14652014652	
1.7685085945576477E12	1322.3443223443223	
1.7685085945654602E12	1330.4029304029302	
1.7685085945732727E12	1339.194139194139	
1.7685085945810852E12	1343.5897435897434	
1.7685085945888977E12	1352.3809523809523	
1.7685085945967102E12	1364.8351648351647	
1.7685085946045227E12	1378.7545787545787	
1.7685085946123352E12	1396.3369963369962	
1.7685085946201477E12	1410.989010989011	
1.7685085946279602E12	1419.7802197802198	
1.7685085946357727E12	1435.8974358974358	
1.7685085946435852E12	1455.6776556776556	
1.7685085946513977E12	1468.131868131868	
1.7685085946592102E12	1479.8534798534797	
1.7685085946670227E12	1487.9120879120878	
1.7685085946748352E12	1494.5054945054944	
1.7685085946826477E12	1498.168498168498	
1.7685085946904602E12	1495.2380952380952	
1.7685085946982727E12	1495.2380952380952	
1.7685085947060852E12	1491.5750915750914	
1.7685085947138977E12	1492.3076923076922	
1.7685085947217102E12	1495.2380952380952	
1.7685085947295227E12	1495.970695970696	
1.7685085947373352E12	1496.7032967032967	
1.7685085947451477E12	1495.2380952380952	
1.7685085947529602E12	1495.2380952380952	
1.7685085947607727E12	1493.040293040293	
1.7685085947685852E12	1497.4358974358972	
1.7685085947763977E12	1498.168498168498	
1.7685085947842102E12	1504.0293040293038	
1.7685085947920227E12	1504.7619047619046	
1.7685085947998352E12	1507.6923076923076	
1.7685085948076477E12	1508.4249084249084	
1.7685085948154602E12	1504.7619047619046	
1.7685085948232727E12	1501.098901098901	
1.7685085948310852E12	1494.5054945054944	
1.7685085948388977E12	1484.9816849816848	
1.7685085948467102E12	1479.8534798534797	
1.7685085948545227E12	1481.3186813186812	
1.7685085948623352E12	1480.5860805860805	
1.7685085948701477E12	1482.7838827838827	
1.7685085948779602E12	1479.120879120879	
1.7685085948857727E12	1472.5274725274724	
1.7685085948935852E12	1467.3992673992673	
1.7685085949013977E12	1460.8058608058607	
1.7685085949092102E12	1460.07326007326	
1.7685085949170227E12	1457.8754578754579	
1.7685085949248352E12	1463.003663003663	
1.7685085949326477E12	1463.003663003663	
1.7685085949404602E12	1467.3992673992673	
1.7685085949482727E12	1466.6666666666665	
1.7685085949560852E12	1464.4688644688645	
1.7685085949638977E12	1463.7362637362637	
1.7685085949717102E12	1457.142857142857	
1.7685085949795227E12	1452.014652014652	
1.7685085949873352E12	1446.153846153846	
1.7685085949951477E12	1438.8278388278388	
1.7685085950029602E12	1438.095238095238	
1.7685085950107727E12	1437.3626373626373	
1.7685085950185852E12	1433.6996336996335	
1.7685085950263977E12	1431.5018315018315	
1.7685085950342102E12	1424.1758241758241	
1.7685085950420227E12	1416.8498168498168	
1.7685085950498352E12	1414.6520146520145	
1.7685085950576477E12	1413.9194139194137	
1.7685085950654602E12	1410.989010989011	
1.7685085950732727E12	1410.989010989011	
1.7685085950810852E12	1405.8608058608058	
1.7685085950888977E12	1392.6739926739926	
1.7685085950967102E12	1381.6849816849815	
1.7685085951045227E12	1373.6263736263736	
1.7685085951123352E12	1368.4981684981683	
1.7685085951201477E12	1368.4981684981683	
1.7685085951279602E12	1367.032967032967	
1.7685085951357727E12	1366.3003663003662	
1.7685085951435852E12	1367.7655677655678	
1.7685085951513977E12	1371.4285714285713	
1.7685085951592102E12	1373.6263736263736	
1.7685085951670227E12	1378.7545787545787	
1.7685085951748352E12	1383.150183150183	
1.7685085951826477E12	1382.4175824175823	
1.7685085951904602E12	1384.6153846153845	
1.7685085951982727E12	1383.8827838827838	
1.7685085952060852E12	1380.2197802197802	
1.7685085952138977E12	1384.6153846153845	
1.7685085952217102E12	1389.7435897435896	
1.7685085952295227E12	1392.6739926739926	
1.7685085952373352E12	1397.8021978021977	
1.7685085952451477E12	1395.6043956043954	
1.7685085952529602E12	1397.069597069597	
1.7685085952607727E12	1397.8021978021977	
1.7685085952685852E12	1395.6043956043954	
1.7685085952763977E12	1394.139194139194	
1.7685085952842102E12	1388.278388278388	
1.7685085952920227E12	1378.7545787545787	
1.7685085952998352E12	1369.9633699633698	
1.7685085953076477E12	1355.3113553113553	
1.7685085953154602E12	1344.3223443223442	
1.7685085953232727E12	1330.4029304029302	
1.7685085953310852E12	1321.6117216117216	
1.7685085953388977E12	1315.018315018315	
1.7685085953467102E12	1310.6227106227104	
1.7685085953545227E12	1312.087912087912	
1.7685085953623352E12	1312.8205128205127	
1.7685085953701477E12	1322.3443223443223	
1.7685085953779602E12	1331.135531135531	
1.7685085953857727E12	1337.7289377289376	
1.7685085953935852E12	1345.7875457875457	
1.7685085954013977E12	1354.5787545787546	
1.7685085954092102E12	1358.974358974359	
1.7685085954170227E12	1361.904761904762	
1.7685085954248352E12	1364.102564102564	
1.7685085954326477E12	1360.4395604395604	
1.7685085954404602E12	1356.7765567765566	
1.7685085954482727E12	1356.0439560439559	
1.7685085954560852E12	1353.8461538461538	
1.7685085954638977E12	1354.5787545787546	
1.7685085954717102E12	1358.2417582417581	
1.7685085954795227E12	1359.7069597069597	
1.7685085954873352E12	1367.032967032967	
1.7685085954951477E12	1375.091575091575	
1.7685085955029602E12	1384.6153846153845	
1.7685085955107727E12	1391.9413919413919	
1.7685085955185852E12	1398.5347985347985	
1.7685085955263977E12	1410.989010989011	
1.7685085955342102E12	1421.245421245421	
1.7685085955420227E12	1433.6996336996335	
1.7685085955498352E12	1448.3516483516482	
1.7685085955576477E12	1460.07326007326	
1.7685085955654602E12	1465.9340659340658	
1.7685085955732727E12	1468.8644688644688	
1.7685085955810852E12	1470.3296703296703	
1.7685085955888977E12	1470.3296703296703	
1.7685085955967102E12	1468.131868131868	
1.7685085956045227E12	1472.5274725274724	
1.7685085956123352E12	1470.3296703296703	
1.7685085956201477E12	1468.131868131868	
1.7685085956279602E12	1469.5970695970695	
1.7685085956357727E12	1468.131868131868	
1.7685085956435852E12	1468.8644688644688	
1.7685085956513977E12	1468.131868131868	
1.7685085956592102E12	1464.4688644688645	
1.7685085956670227E12	1460.07326007326	
1.7685085956748352E12	1458.6080586080584	
1.7685085956826477E12	1458.6080586080584	
1.7685085956904602E12	1460.07326007326	
1.7685085956982727E12	1462.2710622710622	
1.7685085957060852E12	1463.7362637362637	
1.7685085957138977E12	1465.201465201465	
1.7685085957217102E12	1467.3992673992673	
1.7685085957295227E12	1464.4688644688645	
1.7685085957373352E12	1459.3406593406592	
1.7685085957451477E12	1456.4102564102564	
1.7685085957529602E12	1454.212454212454	
1.7685085957607727E12	1452.7472527472526	
1.7685085957685852E12	1452.014652014652	
1.7685085957763977E12	1449.8168498168498	
1.7685085957842102E12	1449.084249084249	
1.7685085957920227E12	1446.8864468864467	
1.7685085957998352E12	1442.4908424908424	
1.7685085958076477E12	1438.8278388278388	
1.7685085958154602E12	1435.164835164835	
1.7685085958232727E12	1432.9670329670328	
1.7685085958310852E12	1427.8388278388277	
1.7685085958388977E12	1421.245421245421	
1.7685085958467102E12	1415.3846153846152	
1.7685085958545227E12	1412.4542124542124	
1.7685085958623352E12	1414.6520146520145	
1.7685085958701477E12	1417.5824175824175	
1.7685085958779602E12	1421.9780219780218	
1.7685085958857727E12	1424.1758241758241	
1.7685085958935852E12	1421.9780219780218	
1.7685085959013977E12	1419.047619047619	
1.7685085959092102E12	1411.7216117216117	
1.7685085959170227E12	1405.128205128205	
1.7685085959248352E12	1400.0	
1.7685085959326477E12	1398.5347985347985	
1.7685085959404602E12	1397.069597069597	
1.7685085959482727E12	1392.6739926739926	
1.7685085959560852E12	1389.7435897435896	
1.7685085959638977E12	1386.8131868131868	
1.7685085959717102E12	1384.6153846153845	
1.7685085959795227E12	1380.2197802197802	
1.7685085959873352E12	1375.8241758241757	
1.7685085959951477E12	1372.8937728937728	
1.7685085960029602E12	1369.230769230769	
1.7685085960107727E12	1367.032967032967	
1.7685085960185852E12	1366.3003663003662	
1.7685085960263977E12	1366.3003663003662	
1.7685085960342102E12	1365.5677655677655	
1.7685085960420227E12	1364.102564102564	
1.7685085960498352E12	1365.5677655677655	
1.7685085960576477E12	1367.032967032967	
1.7685085960654602E12	1367.032967032967	
1.7685085960732727E12	1367.032967032967	
1.7685085960810852E12	1365.5677655677655	
1.7685085960888977E12	1365.5677655677655	
1.7685085960967102E12	1364.8351648351647	
1.7685085961045227E12	1361.1721611721612	
1.7685085961123352E12	1354.5787545787546	
1.7685085961201477E12	1351.6483516483515	
1.7685085961279602E12	1350.9157509157508	
1.7685085961357727E12	1351.6483516483515	
1.7685085961435852E12	1350.9157509157508	
1.7685085961513977E12	1349.4505494505493	
1.7685085961592102E12	1350.18315018315	
1.7685085961670227E12	1350.9157509157508	
1.7685085961748352E12	1351.6483516483515	
1.7685085961826477E12	1353.113553113553	
1.7685085961904602E12	1350.18315018315	
1.7685085961982727E12	1350.18315018315	
1.7685085962060852E12	1349.4505494505493	
1.7685085962138977E12	1350.9157509157508	
1.7685085962217102E12	1350.9157509157508	
1.7685085962295227E12	1350.18315018315	
1.7685085962373352E12	1345.7875457875457	
1.7685085962451477E12	1341.3919413919414	
1.7685085962529602E12	1336.9963369963368	
1.7685085962607727E12	1334.7985347985348	
1.7685085962685852E12	1336.263736263736	
1.7685085962763977E12	1339.194139194139	
1.7685085962842102E12	1339.194139194139	
1.7685085962920227E12	1336.263736263736	
1.7685085962998352E12	1329.6703296703297	
1.7685085963076477E12	1326.007326007326	
1.7685085963154602E12	1320.8791208791208	
1.7685085963232727E12	1319.4139194139193	
1.7685085963310852E12	1322.3443223443223	
1.7685085963388977E12	1328.937728937729	
1.7685085963467102E12	1336.9963369963368	
1.7685085963545227E12	1346.5201465201465	
1.7685085963623352E12	1357.5091575091574	
1.7685085963701477E12	1371.4285714285713	
1.7685085963779602E12	1387.5457875457876	
1.7685085963857727E12	1404.3956043956043	
1.7685085963935852E12	1420.5128205128203	
1.7685085964013977E12	1436.6300366300366	
1.7685085964092102E12	1449.8168498168498	
1.7685085964170227E12	1461.5384615384614	
1.7685085964248352E12	1471.7948717948716	
1.7685085964326477E12	1475.4578754578754	
1.7685085964404602E12	1473.260073260073	
1.7685085964482727E12	1468.131868131868	
1.7685085964560852E12	1467.3992673992673	
1.7685085964638977E12	1468.131868131868	
1.7685085964717102E12	1471.7948717948716	
1.7685085964795227E12	1473.260073260073	
1.7685085964873352E12	1471.7948717948716	
1.7685085964951477E12	1471.7948717948716	
1.7685085965029602E12	1475.4578754578754	
1.7685085965107727E12	1481.3186813186812	
1.7685085965185852E12	1490.10989010989	
1.7685085965263977E12	1495.970695970696	
1.7685085965342102E12	1499.6336996336995	
1.7685085965420227E12	1496.7032967032967	
1.7685085965498352E12	1492.3076923076922	
1.7685085965576477E12	1487.9120879120878	
1.7685085965654602E12	1482.7838827838827	
1.7685085965732727E12	1480.5860805860805	
1.7685085965810852E12	1476.923076923077	
1.7685085965888977E12	1472.5274725274724	
1.7685085965967102E12	1465.9340659340658	
1.7685085966045227E12	1457.8754578754579	
1.7685085966123352E12	1449.8168498168498	
1.7685085966201477E12	1444.6886446886447	
1.7685085966279602E12	1441.0256410256409	
1.7685085966357727E12	1440.2930402930401	
1.7685085966435852E12	1440.2930402930401	
1.7685085966513977E12	1440.2930402930401	
1.7685085966592102E12	1441.7582417582416	
1.7685085966670227E12	1442.4908424908424	
1.7685085966748352E12	1439.5604395604394	
1.7685085966826477E12	1433.6996336996335	
1.7685085966904602E12	1428.5714285714284	
1.7685085966982727E12	1423.4432234432234	
1.7685085967060852E12	1417.5824175824175	
1.7685085967138977E12	1413.9194139194137	
1.7685085967217102E12	1410.989010989011	
1.7685085967295227E12	1404.3956043956043	
1.7685085967373352E12	1397.069597069597	
1.7685085967451477E12	1390.4761904761904	
1.7685085967529602E12	1387.5457875457876	
1.7685085967607727E12	1382.4175824175823	
1.7685085967685852E12	1379.4871794871794	
1.7685085967763977E12	1378.7545787545787	
1.7685085967842102E12	1380.952380952381	
1.7685085967920227E12	1386.080586080586	
1.7685085967998352E12	1393.4065934065934	
1.7685085968076477E12	1400.7326007326005	
1.7685085968154602E12	1408.7912087912086	
1.7685085968232727E12	1415.3846153846152	
1.7685085968310852E12	1421.245421245421	
1.7685085968388977E12	1423.4432234432234	
1.7685085968467102E12	1422.7106227106226	
1.7685085968545227E12	1416.8498168498168	
1.7685085968623352E12	1408.058608058608	
1.7685085968701477E12	1399.2673992673992	
1.7685085968779602E12	1387.5457875457876	
1.7685085968857727E12	1374.3589743589744	
1.7685085968935852E12	1363.3699633699632	
1.7685085969013977E12	1353.8461538461538	
1.7685085969092102E12	1346.5201465201465	
1.7685085969170227E12	1339.9267399267399	
1.7685085969248352E12	1335.5311355311355	
1.7685085969326477E12	1333.3333333333333	
1.7685085969404602E12	1334.065934065934	
1.7685085969482727E12	1334.065934065934	
1.7685085969560852E12	1333.3333333333333	
1.7685085969638977E12	1331.8681318681317	
1.7685085969717102E12	1327.4725274725274	
1.7685085969795227E12	1325.2747252747251	
1.7685085969873352E12	1323.076923076923	
1.7685085969951477E12	1323.076923076923	
1.7685085970029602E12	1323.8095238095236	
1.7685085970107727E12	1327.4725274725274	
1.7685085970185852E12	1329.6703296703297	
1.7685085970263977E12	1329.6703296703297	
1.7685085970342102E12	1328.2051282051282	
1.7685085970420227E12	1328.937728937729	
1.7685085970498352E12	1327.4725274725274	
1.7685085970576477E12	1326.7399267399267	
1.7685085970654602E12	1320.8791208791208	
1.7685085970732727E12	1309.89010989011	
1.7685085970810852E12	1304.7619047619046	
1.7685085970888977E12	1301.098901098901	
1.7685085970967102E12	1301.8315018315018	
1.7685085971045227E12	1303.2967032967033	
1.7685085971123352E12	1306.227106227106	
1.7685085971201477E12	1307.6923076923076	
1.7685085971279602E12	1307.6923076923076	
1.7685085971357727E12	1309.1575091575091	
1.7685085971435852E12	1312.8205128205127	
1.7685085971513977E12	1317.9487179487178	
1.7685085971592102E12	1325.2747252747251	
1.7685085971670227E12	1334.7985347985348	
1.7685085971748352E12	1344.3223443223442	
1.7685085971826477E12	1356.0439560439559	
1.7685085971904602E12	1367.032967032967	
1.7685085971982727E12	1377.2893772893772	
1.7685085972060852E12	1390.4761904761904	
1.7685085972138977E12	1402.197802197802	
1.7685085972217102E12	1417.5824175824175	
1.7685085972295227E12	1426.3736263736262	
1.7685085972373352E12	1437.3626373626373	
1.7685085972451477E12	1449.8168498168498	
1.7685085972529602E12	1462.2710622710622	
1.7685085972607727E12	1473.9926739926739	
1.7685085972685852E12	1484.2490842490843	
1.7685085972763977E12	1493.7728937728937	
1.7685085972842102E12	1500.3663003663003	
1.7685085972920227E12	1505.4945054945053	
1.7685085972998352E12	1508.4249084249084	
1.7685085973076477E12	1511.3553113553112	
1.7685085973154602E12	1512.8205128205127	
1.7685085973232727E12	1516.4835164835163	
1.7685085973310852E12	1516.4835164835163	
1.7685085973388977E12	1517.216117216117	
1.7685085973467102E12	1517.9487179487178	
1.7685085973545227E12	1516.4835164835163	
1.7685085973623352E12	1514.2857142857142	
1.7685085973701477E12	1512.8205128205127	
1.7685085973779602E12	1509.1575091575091	
1.7685085973857727E12	1504.7619047619046	
1.7685085973935852E12	1501.098901098901	
1.7685085974013977E12	1498.168498168498	
1.7685085974092102E12	1494.5054945054944	
1.7685085974170227E12	1490.10989010989	
1.7685085974248352E12	1483.5164835164835	
1.7685085974326477E12	1474.7252747252746	
1.7685085974404602E12	1463.7362637362637	
1.7685085974482727E12	1457.8754578754579	
1.7685085974560852E12	1453.4798534798533	
1.7685085974638977E12	1450.5494505494505	
1.7685085974717102E12	1444.6886446886447	
1.7685085974795227E12	1437.3626373626373	
1.7685085974873352E12	1435.164835164835	
1.7685085974951477E12	1430.03663003663	
1.7685085975029602E12	1426.3736263736262	
1.7685085975107727E12	1424.9084249084249	
1.7685085975185852E12	1420.5128205128203	
1.7685085975263977E12	1417.5824175824175	
1.7685085975342102E12	1413.9194139194137	
1.7685085975420227E12	1408.058608058608	
1.7685085975498352E12	1405.8608058608058	
1.7685085975576477E12	1404.3956043956043	
1.7685085975654602E12	1408.058608058608	
1.7685085975732727E12	1412.4542124542124	
1.7685085975810852E12	1415.3846153846152	
1.7685085975888977E12	1416.8498168498168	
1.7685085975967102E12	1416.8498168498168	
1.7685085976045227E12	1419.047619047619	
1.7685085976123352E12	1422.7106227106226	
1.7685085976201477E12	1421.245421245421	
1.7685085976279602E12	1415.3846153846152	
1.7685085976357727E12	1406.5934065934066	
1.7685085976435852E12	1400.0	
1.7685085976513977E12	1394.8717948717947	
1.7685085976592102E12	1389.0109890109889	
1.7685085976670227E12	1383.150183150183	
1.7685085976748352E12	1378.7545787545787	
1.7685085976826477E12	1377.2893772893772	
1.7685085976904602E12	1378.021978021978	
1.7685085976982727E12	1377.2893772893772	
1.7685085977060852E12	1374.3589743589744	
1.7685085977138977E12	1367.7655677655678	
1.7685085977217102E12	1364.8351648351647	
1.7685085977295227E12	1361.904761904762	
1.7685085977373352E12	1360.4395604395604	
1.7685085977451477E12	1360.4395604395604	
1.7685085977529602E12	1360.4395604395604	
1.7685085977607727E12	1362.6373626373625	
1.7685085977685852E12	1366.3003663003662	
1.7685085977763977E12	1369.9633699633698	
1.7685085977842102E12	1369.9633699633698	
1.7685085977920227E12	1365.5677655677655	
1.7685085977998352E12	1361.904761904762	
1.7685085978076477E12	1356.7765567765566	
1.7685085978154602E12	1353.113553113553	
1.7685085978232727E12	1348.7179487179487	
1.7685085978310852E12	1347.2527472527472	
1.7685085978388977E12	1348.7179487179487	
1.7685085978467102E12	1350.9157509157508	
1.7685085978545227E12	1353.8461538461538	
1.7685085978623352E12	1357.5091575091574	
1.7685085978701477E12	1358.2417582417581	
1.7685085978779602E12	1356.7765567765566	
1.7685085978857727E12	1352.3809523809523	
1.7685085978935852E12	1345.054945054945	
1.7685085979013977E12	1339.194139194139	
1.7685085979092102E12	1334.7985347985348	
1.7685085979170227E12	1330.4029304029302	
1.7685085979248352E12	1326.7399267399267	
1.7685085979326477E12	1322.3443223443223	
1.7685085979404602E12	1320.14652014652	
1.7685085979482727E12	1320.8791208791208	
1.7685085979560852E12	1320.14652014652	
1.7685085979638977E12	1316.4835164835165	
1.7685085979717102E12	1314.2857142857142	
1.7685085979795227E12	1312.087912087912	
1.7685085979873352E12	1315.018315018315	
1.7685085979951477E12	1315.018315018315	
1.7685085980029602E12	1312.8205128205127	
1.7685085980107727E12	1312.8205128205127	
1.7685085980185852E12	1312.087912087912	
1.7685085980263977E12	1319.4139194139193	
1.7685085980342102E12	1332.6007326007325	
1.7685085980420227E12	1348.7179487179487	
1.7685085980498352E12	1367.032967032967	
1.7685085980576477E12	1386.8131868131868	
1.7685085980654602E12	1402.9304029304028	
1.7685085980732727E12	1418.3150183150183	
1.7685085980810852E12	1430.7692307692307	
1.7685085980888977E12	1439.5604395604394	
1.7685085980967102E12	1447.6190476190475	
1.7685085981045227E12	1454.9450549450548	
1.7685085981123352E12	1459.3406593406592	
1.7685085981201477E12	1463.7362637362637	
1.7685085981279602E12	1466.6666666666665	
1.7685085981357727E12	1468.8644688644688	
1.7685085981435852E12	1471.7948717948716	
1.7685085981513977E12	1477.6556776556777	
1.7685085981592102E12	1488.6446886446886	
1.7685085981670227E12	1500.3663003663003	
1.7685085981748352E12	1509.1575091575091	
1.7685085981826477E12	1517.9487179487178	
1.7685085981904602E12	1524.5421245421244	
1.7685085981982727E12	1531.8681318681317	
1.7685085982060852E12	1538.4615384615383	
1.7685085982138977E12	1541.3919413919414	
1.7685085982217102E12	1542.1245421245421	
1.7685085982295227E12	1541.3919413919414	
1.7685085982373352E12	1539.194139194139	
1.7685085982451477E12	1538.4615384615383	
1.7685085982529602E12	1537.7289377289376	
1.7685085982607727E12	1538.4615384615383	
1.7685085982685852E12	1538.4615384615383	
1.7685085982763977E12	1536.9963369963368	
1.7685085982842102E12	1535.5311355311355	
1.7685085982920227E12	1531.135531135531	
1.7685085982998352E12	1527.4725274725274	
1.7685085983076477E12	1525.2747252747251	
1.7685085983154602E12	1523.0769230769229	
1.7685085983232727E12	1522.3443223443223	
1.7685085983310852E12	1520.14652014652	
1.7685085983388977E12	1516.4835164835163	
1.7685085983467102E12	1514.2857142857142	
1.7685085983545227E12	1512.8205128205127	
1.7685085983623352E12	1512.087912087912	
1.7685085983701477E12	1510.6227106227104	
1.7685085983779602E12	1511.3553113553112	
1.7685085983857727E12	1515.018315018315	
1.7685085983935852E12	1517.216117216117	
1.7685085984013977E12	1521.6117216117216	
1.7685085984092102E12	1525.2747252747251	
1.7685085984170227E12	1531.135531135531	
1.7685085984248352E12	1539.194139194139	
1.7685085984326477E12	1545.054945054945	
1.7685085984404602E12	1549.4505494505493	
1.7685085984482727E12	1552.3809523809523	
1.7685085984560852E12	1550.9157509157508	
1.7685085984638977E12	1546.5201465201465	
1.7685085984717102E12	1538.4615384615383	
1.7685085984795227E12	1528.937728937729	
1.7685085984873352E12	1523.0769230769229	
1.7685085984951477E12	1515.7509157509157	
1.7685085985029602E12	1505.4945054945053	
1.7685085985107727E12	1493.040293040293	
1.7685085985185852E12	1479.120879120879	
1.7685085985263977E12	1469.5970695970695	
1.7685085985342102E12	1463.7362637362637	
1.7685085985420227E12	1460.07326007326	
1.7685085985498352E12	1459.3406593406592	
1.7685085985576477E12	1459.3406593406592	
1.7685085985654602E12	1460.8058608058607	
1.7685085985732727E12	1459.3406593406592	
1.7685085985810852E12	1458.6080586080584	
1.7685085985888977E12	1458.6080586080584	
1.7685085985967102E12	1459.3406593406592	
1.7685085986045227E12	1460.07326007326	
1.7685085986123352E12	1459.3406593406592	
1.7685085986201477E12	1457.8754578754579	
1.7685085986279602E12	1454.9450549450548	
1.7685085986357727E12	1454.212454212454	
1.7685085986435852E12	1451.2820512820513	
1.7685085986513977E12	1443.956043956044	
1.7685085986592102E12	1439.5604395604394	
1.7685085986670227E12	1432.9670329670328	
1.7685085986748352E12	1427.8388278388277	
1.7685085986826477E12	1426.3736263736262	
1.7685085986904602E12	1427.106227106227	
1.7685085986982727E12	1426.3736263736262	
1.7685085987060852E12	1421.9780219780218	
1.7685085987138977E12	1419.7802197802198	
1.7685085987217102E12	1418.3150183150183	
1.7685085987295227E12	1415.3846153846152	
1.7685085987373352E12	1411.7216117216117	
1.7685085987451782E12	1405.8608058608058	
1.7685085987529602E12	1397.069597069597	
1.7685085987607727E12	1387.5457875457876	
1.7685085987685852E12	1377.2893772893772	
1.7685085987763977E12	1368.4981684981683	
1.7685085987842102E12	1359.7069597069597	
1.7685085987920227E12	1356.0439560439559	
1.7685085987998352E12	1358.974358974359	
1.7685085988076477E12	1364.102564102564	
1.7685085988154602E12	1369.9633699633698	
1.7685085988232727E12	1369.230769230769	
1.7685085988310852E12	1366.3003663003662	
1.7685085988388977E12	1363.3699633699632	
1.7685085988467102E12	1361.1721611721612	
1.7685085988545227E12	1358.974358974359	
1.7685085988623352E12	1356.0439560439559	
1.7685085988701477E12	1353.8461538461538	
1.7685085988779602E12	1350.18315018315	
1.7685085988857727E12	1347.2527472527472	
1.7685085988935852E12	1345.7875457875457	
1.7685085989013977E12	1345.7875457875457	
1.7685085989092102E12	1346.5201465201465	
1.7685085989170227E12	1349.4505494505493	
1.7685085989248352E12	1351.6483516483515	
1.7685085989326477E12	1354.5787545787546	
1.7685085989404602E12	1359.7069597069597	
1.7685085989482727E12	1362.6373626373625	
1.7685085989560852E12	1361.904761904762	
1.7685085989638977E12	1361.904761904762	
1.7685085989717102E12	1363.3699633699632	
1.7685085989795227E12	1369.9633699633698	
1.7685085989873352E12	1380.2197802197802	
1.7685085989951477E12	1394.8717948717947	
1.7685085990029602E12	1411.7216117216117	
1.7685085990107727E12	1429.3040293040292	
1.7685085990185852E12	1446.153846153846	
1.7685085990263977E12	1460.8058608058607	
1.7685085990342102E12	1472.5274725274724	
1.7685085990420227E12	1484.2490842490843	
1.7685085990498352E12	1495.970695970696	
1.7685085990576477E12	1506.9597069597069	
1.7685085990654602E12	1514.2857142857142	
1.7685085990732727E12	1519.4139194139193	
1.7685085990810852E12	1523.8095238095236	
1.7685085990888977E12	1526.007326007326	
1.7685085990967102E12	1526.7399267399267	
1.7685085991045227E12	1525.2747252747251	
1.7685085991123352E12	1521.6117216117216	
1.7685085991201477E12	1513.5531135531135	
1.7685085991279602E12	1502.5641025641025	
1.7685085991357727E12	1494.5054945054944	
1.7685085991435852E12	1493.7728937728937	
1.7685085991513977E12	1493.7728937728937	
1.7685085991592102E12	1494.5054945054944	
1.7685085991670227E12	1493.7728937728937	
1.7685085991748352E12	1490.8424908424906	
1.7685085991826477E12	1485.7142857142856	
1.7685085991904602E12	1484.2490842490843	
1.7685085991982727E12	1484.2490842490843	
1.7685085992060852E12	1482.7838827838827	
1.7685085992138977E12	1480.5860805860805	
1.7685085992217102E12	1474.7252747252746	
1.7685085992295227E12	1471.062271062271	
1.7685085992373352E12	1468.131868131868	
1.7685085992451477E12	1466.6666666666665	
1.7685085992529602E12	1465.201465201465	
1.7685085992607727E12	1463.7362637362637	
1.7685085992685852E12	1461.5384615384614	
1.7685085992763977E12	1457.8754578754579	
1.7685085992842102E12	1449.8168498168498	
1.7685085992920227E12	1439.5604395604394	
1.7685085992998352E12	1427.8388278388277	
1.7685085993076477E12	1421.245421245421	
1.7685085993154602E12	1413.9194139194137	
1.7685085993232727E12	1404.3956043956043	
1.7685085993310852E12	1394.8717948717947	
1.7685085993388977E12	1386.080586080586	
1.7685085993467102E12	1377.2893772893772	
1.7685085993545227E12	1367.7655677655678	
1.7685085993623352E12	1359.7069597069597	
1.7685085993701477E12	1353.113553113553	
1.7685085993779602E12	1347.985347985348	
1.7685085993857727E12	1347.2527472527472	
1.7685085993935852E12	1350.9157509157508	
1.7685085994013977E12	1354.5787545787546	
1.7685085994092102E12	1357.5091575091574	
1.7685085994170227E12	1359.7069597069597	
1.7685085994248352E12	1361.904761904762	
1.7685085994326477E12	1363.3699633699632	
1.7685085994404602E12	1367.7655677655678	
1.7685085994482727E12	1373.6263736263736	
1.7685085994560852E12	1378.021978021978	
1.7685085994638977E12	1380.2197802197802	
1.7685085994717102E12	1379.4871794871794	
1.7685085994795227E12	1375.8241758241757	
1.7685085994873352E12	1372.161172161172	
1.7685085994951477E12	1369.9633699633698	
1.7685085995029602E12	1368.4981684981683	
1.7685085995107727E12	1366.3003663003662	
1.7685085995185852E12	1366.3003663003662	
1.7685085995263977E12	1367.7655677655678	
1.7685085995342102E12	1369.9633699633698	
1.7685085995420227E12	1368.4981684981683	
1.7685085995498352E12	1361.1721611721612	
1.7685085995576477E12	1350.18315018315	
1.7685085995654602E12	1340.6593406593406	
1.7685085995732727E12	1334.065934065934	
1.7685085995810852E12	1331.135531135531	
1.7685085995888977E12	1330.4029304029302	
1.7685085995967102E12	1331.8681318681317	
1.7685085996045227E12	1335.5311355311355	
1.7685085996123352E12	1335.5311355311355	
1.7685085996201477E12	1339.194139194139	
1.7685085996279602E12	1341.3919413919414	
1.7685085996357727E12	1342.1245421245421	
1.7685085996435852E12	1340.6593406593406	
1.7685085996513977E12	1339.194139194139	
1.7685085996592102E12	1339.194139194139	
1.7685085996670227E12	1337.7289377289376	
1.7685085996748352E12	1332.6007326007325	
1.7685085996826477E12	1328.2051282051282	
1.7685085996904602E12	1324.5421245421244	
1.7685085996982727E12	1321.6117216117216	
1.7685085997060852E12	1315.7509157509157	
1.7685085997138977E12	1309.89010989011	
1.7685085997217102E12	1304.7619047619046	
1.7685085997295227E12	1299.6336996336995	
1.7685085997373352E12	1293.040293040293	
1.7685085997451477E12	1288.6446886446886	
1.7685085997529602E12	1287.179487179487	
1.7685085997607727E12	1290.10989010989	
1.7685085997685852E12	1297.4358974358975	
1.7685085997763977E12	1303.2967032967033	
1.7685085997842102E12	1309.1575091575091	
1.7685085997920227E12	1311.3553113553112	
1.7685085997998352E12	1310.6227106227104	
1.7685085998076477E12	1309.1575091575091	
1.7685085998154602E12	1307.6923076923076	
1.7685085998232727E12	1305.4945054945053	
1.7685085998310852E12	1301.098901098901	
1.7685085998388977E12	1291.5750915750914	
1.7685085998467102E12	1280.5860805860805	
1.7685085998545227E12	1268.8644688644688	
1.7685085998623352E12	1257.8754578754579	
1.7685085998701477E12	1249.8168498168498	
1.7685085998779602E12	1244.6886446886447	
1.7685085998857727E12	1241.0256410256409	
1.7685085998935852E12	1236.6300366300366	
1.7685085999013977E12	1234.4322344322343	
1.7685085999092102E12	1235.164835164835	
1.7685085999170227E12	1235.8974358974358	
1.7685085999248352E12	1241.7582417582416	
1.7685085999326477E12	1250.5494505494505	
1.7685085999404602E12	1258.6080586080586	
1.7685085999482727E12	1264.4688644688645	
1.7685085999560852E12	1267.3992673992673	
1.7685085999638977E12	1265.9340659340658	
1.7685085999717102E12	1271.062271062271	
1.7685085999795227E12	1279.120879120879	
1.7685085999873352E12	1286.4468864468863	
1.7685085999951477E12	1297.4358974358975	
1.7685086000029602E12	1308.4249084249084	
1.7685086000107727E12	1316.4835164835165	
1.7685086000185852E12	1326.7399267399267	
1.7685086000263977E12	1338.4615384615383	
1.7685086000342102E12	1352.3809523809523	
1.7685086000420227E12	1366.3003663003662	
1.7685086000498352E12	1377.2893772893772	
1.7685086000576477E12	1389.7435897435896	
1.7685086000654602E12	1401.4652014652013	
1.7685086000732727E12	1406.5934065934066	
1.7685086000810852E12	1409.5238095238094	
1.7685086000888977E12	1412.4542124542124	
1.7685086000967102E12	1415.3846153846152	
1.7685086001045227E12	1419.047619047619	
1.7685086001123352E12	1425.6410256410256	
1.7685086001201477E12	1432.9670329670328	
1.7685086001279602E12	1441.7582417582416	
1.7685086001357727E12	1450.5494505494505	
1.7685086001435852E12	1460.8058608058607	
1.7685086001513977E12	1473.260073260073	
1.7685086001592102E12	1484.2490842490843	
1.7685086001670227E12	1492.3076923076922	
1.7685086001748352E12	1496.7032967032967	
1.7685086001826477E12	1500.3663003663003	
1.7685086001904602E12	1504.7619047619046	
1.7685086001982727E12	1507.6923076923076	
1.7685086002060852E12	1506.9597069597069	
1.7685086002138977E12	1502.5641025641025	
1.7685086002217102E12	1498.168498168498	
1.7685086002295227E12	1490.8424908424906	
1.7685086002373352E12	1481.3186813186812	
1.7685086002451782E12	1474.7252747252746	
1.7685086002529602E12	1465.201465201465	
1.7685086002607727E12	1453.4798534798533	
1.7685086002685852E12	1441.7582417582416	
1.7685086002763977E12	1431.5018315018315	
1.7685086002842102E12	1423.4432234432234	
1.7685086002920227E12	1416.8498168498168	
1.7685086002998352E12	1410.2564102564102	
1.7685086003076477E12	1402.9304029304028	
1.7685086003154602E12	1397.069597069597	
1.7685086003232727E12	1391.9413919413919	
1.7685086003310852E12	1386.080586080586	
1.7685086003388977E12	1383.150183150183	
1.7685086003467102E12	1384.6153846153845	
1.7685086003545227E12	1385.3479853479853	
1.7685086003623352E12	1382.4175824175823	
1.7685086003701477E12	1378.7545787545787	
1.7685086003779602E12	1375.8241758241757	
1.7685086003857727E12	1373.6263736263736	
1.7685086003935852E12	1372.161172161172	
1.7685086004013977E12	1372.161172161172	
1.7685086004092102E12	1372.8937728937728	
1.7685086004170227E12	1375.091575091575	
1.7685086004248352E12	1375.8241758241757	
1.7685086004326477E12	1372.161172161172	
1.7685086004404602E12	1364.102564102564	
1.7685086004482727E12	1356.0439560439559	
1.7685086004560852E12	1350.18315018315	
1.7685086004638977E12	1345.054945054945	
1.7685086004717102E12	1340.6593406593406	
1.7685086004795227E12	1335.5311355311355	
1.7685086004873352E12	1328.2051282051282	
1.7685086004951477E12	1322.3443223443223	
1.7685086005029602E12	1321.6117216117216	
1.7685086005107727E12	1322.3443223443223	
1.7685086005185852E12	1320.8791208791208	
1.7685086005263977E12	1317.9487179487178	
1.7685086005342102E12	1315.7509157509157	
1.7685086005420227E12	1315.018315018315	
1.7685086005498352E12	1316.4835164835165	
1.7685086005576477E12	1317.9487179487178	
1.7685086005654602E12	1322.3443223443223	
1.7685086005732727E12	1328.2051282051282	
1.7685086005810852E12	1334.7985347985348	
1.7685086005888977E12	1340.6593406593406	
1.7685086005967102E12	1342.1245421245421	
1.7685086006045227E12	1338.4615384615383	
1.7685086006123352E12	1333.3333333333333	
1.7685086006201477E12	1329.6703296703297	
1.7685086006279602E12	1328.937728937729	
1.7685086006357727E12	1326.007326007326	
1.7685086006435852E12	1322.3443223443223	
1.7685086006513977E12	1318.6813186813185	
1.7685086006592102E12	1314.2857142857142	
1.7685086006670227E12	1309.1575091575091	
1.7685086006748352E12	1305.4945054945053	
1.7685086006826477E12	1301.098901098901	
1.7685086006904602E12	1295.970695970696	
1.7685086006982727E12	1293.040293040293	
1.7685086007060852E12	1288.6446886446886	
1.7685086007138977E12	1282.7838827838827	
1.7685086007217102E12	1277.6556776556777	
1.7685086007295227E12	1276.923076923077	
1.7685086007373352E12	1277.6556776556777	
1.7685086007451477E12	1276.923076923077	
1.7685086007529602E12	1274.7252747252746	
1.7685086007607727E12	1271.062271062271	
1.7685086007685852E12	1267.3992673992673	
1.7685086007763977E12	1266.6666666666665	
1.7685086007842102E12	1265.9340659340658	
1.7685086007920227E12	1268.8644688644688	
1.7685086007998352E12	1275.4578754578754	
1.7685086008076477E12	1285.7142857142856	
1.7685086008154602E12	1296.7032967032967	
1.7685086008232727E12	1306.9597069597069	
1.7685086008310852E12	1314.2857142857142	
1.7685086008388977E12	1316.4835164835165	
1.7685086008467102E12	1315.018315018315	
1.7685086008545227E12	1310.6227106227104	
1.7685086008623352E12	1303.2967032967033	
1.7685086008701477E12	1293.040293040293	
1.7685086008779602E12	1280.5860805860805	
1.7685086008857727E12	1267.3992673992673	
1.7685086008935852E12	1257.8754578754579	
1.7685086009013977E12	1253.4798534798533	
1.7685086009092102E12	1252.014652014652	
1.7685086009170227E12	1252.014652014652	
1.7685086009248352E12	1253.4798534798533	
1.7685086009326477E12	1255.6776556776556	
1.7685086009404602E12	1261.5384615384614	
1.7685086009482727E12	1270.3296703296703	
1.7685086009560852E12	1284.9816849816848	
1.7685086009638977E12	1301.8315018315018	
1.7685086009717102E12	1319.4139194139193	
1.7685086009795227E12	1334.7985347985348	
1.7685086009873352E12	1348.7179487179487	
1.7685086009951477E12	1361.1721611721612	
1.7685086010029602E12	1372.8937728937728	
1.7685086010107727E12	1382.4175824175823	
1.7685086010185852E12	1391.9413919413919	
1.7685086010263977E12	1402.197802197802	
1.7685086010342102E12	1411.7216117216117	
1.7685086010420227E12	1419.047619047619	
1.7685086010498352E12	1424.1758241758241	
1.7685086010576477E12	1427.8388278388277	
1.7685086010654602E12	1433.6996336996335	
1.7685086010732727E12	1441.0256410256409	
1.7685086010810852E12	1448.3516483516482	
1.7685086010888977E12	1455.6776556776556	
1.7685086010967102E12	1460.8058608058607	
1.7685086011045227E12	1464.4688644688645	
1.7685086011123352E12	1463.7362637362637	
1.7685086011201477E12	1459.3406593406592	
1.7685086011279602E12	1457.142857142857	
1.7685086011357727E12	1454.9450549450548	
1.7685086011435852E12	1452.014652014652	
1.7685086011513977E12	1449.084249084249	
1.7685086011592102E12	1445.4212454212454	
1.7685086011670227E12	1442.4908424908424	
1.7685086011748352E12	1434.4322344322343	
1.7685086011826477E12	1423.4432234432234	
1.7685086011904602E12	1410.989010989011	
1.7685086011982727E12	1403.6630036630036	
1.7685086012060852E12	1393.4065934065934	
1.7685086012138977E12	1386.8131868131868	
1.7685086012217102E12	1382.4175824175823	
1.7685086012295227E12	1381.6849816849815	
1.7685086012373352E12	1380.2197802197802	
1.7685086012451477E12	1378.021978021978	
1.7685086012529602E12	1379.4871794871794	
1.7685086012607727E12	1383.150183150183	
1.7685086012685852E12	1386.080586080586	
1.7685086012763977E12	1386.080586080586	
1.7685086012842102E12	1383.150183150183	
1.7685086012920227E12	1380.952380952381	
1.7685086012998352E12	1378.7545787545787	
1.7685086013076477E12	1378.021978021978	
1.7685086013154602E12	1375.091575091575	
1.7685086013232727E12	1372.8937728937728	
1.7685086013310852E12	1373.6263736263736	
1.7685086013388977E12	1374.3589743589744	
1.7685086013467102E12	1371.4285714285713	
1.7685086013545227E12	1366.3003663003662	
1.7685086013623352E12	1364.8351648351647	
1.7685086013701477E12	1360.4395604395604	
1.7685086013779602E12	1351.6483516483515	
1.7685086013857727E12	1344.3223443223442	
1.7685086013935852E12	1336.9963369963368	
1.7685086014013977E12	1328.2051282051282	
1.7685086014092102E12	1317.9487179487178	
1.7685086014170227E12	1309.1575091575091	
1.7685086014248352E12	1306.9597069597069	
1.7685086014326477E12	1310.6227106227104	
1.7685086014404602E12	1318.6813186813185	
1.7685086014482727E12	1326.7399267399267	
1.7685086014560852E12	1332.6007326007325	
1.7685086014638977E12	1334.7985347985348	
1.7685086014717102E12	1339.194139194139	
1.7685086014795227E12	1339.194139194139	
1.7685086014873352E12	1337.7289377289376	
1.7685086014951477E12	1334.065934065934	
1.7685086015029602E12	1332.6007326007325	
1.7685086015107727E12	1329.6703296703297	
1.7685086015185852E12	1324.5421245421244	
1.7685086015263977E12	1315.7509157509157	
1.7685086015342102E12	1309.1575091575091	
1.7685086015420227E12	1304.7619047619046	
1.7685086015498352E12	1303.2967032967033	
1.7685086015576477E12	1304.7619047619046	
1.7685086015654602E12	1306.227106227106	
1.7685086015732727E12	1305.4945054945053	
1.7685086015810852E12	1301.8315018315018	
1.7685086015888977E12	1299.6336996336995	
1.7685086015967102E12	1297.4358974358975	
1.7685086016045227E12	1293.040293040293	
1.7685086016123352E12	1287.179487179487	
1.7685086016201477E12	1283.5164835164835	
1.7685086016279602E12	1282.7838827838827	
1.7685086016357727E12	1278.3882783882782	
1.7685086016435852E12	1275.4578754578754	
1.7685086016513977E12	1271.062271062271	
1.7685086016592102E12	1267.3992673992673	
1.7685086016670227E12	1271.7948717948716	
1.7685086016748352E12	1276.1904761904761	
1.7685086016826477E12	1278.3882783882782	
1.7685086016904602E12	1279.8534798534797	
1.7685086016982727E12	1282.7838827838827	
1.7685086017060852E12	1284.9816849816848	
1.7685086017138977E12	1283.5164835164835	
1.7685086017217102E12	1282.051282051282	
1.7685086017295227E12	1279.120879120879	
1.7685086017373352E12	1275.4578754578754	
1.7685086017451477E12	1270.3296703296703	
1.7685086017529602E12	1264.4688644688645	
1.7685086017607727E12	1259.3406593406592	
1.7685086017685852E12	1256.4102564102564	
1.7685086017763977E12	1253.4798534798533	
1.7685086017842102E12	1252.7472527472526	
1.7685086017920227E12	1249.084249084249	
1.7685086017998352E12	1249.8168498168498	
1.7685086018076477E12	1254.9450549450548	
1.7685086018154602E12	1257.142857142857	
1.7685086018232727E12	1256.4102564102564	
1.7685086018310852E12	1260.07326007326	
1.7685086018388977E12	1268.131868131868	
1.7685086018467102E12	1274.7252747252746	
1.7685086018545227E12	1279.120879120879	
1.7685086018623352E12	1282.7838827838827	
1.7685086018701477E12	1285.7142857142856	
1.7685086018779602E12	1284.9816849816848	
1.7685086018857727E12	1285.7142857142856	
1.7685086018935852E12	1289.3772893772893	
1.7685086019013977E12	1293.040293040293	
1.7685086019092102E12	1298.168498168498	
1.7685086019170227E12	1312.087912087912	
1.7685086019248352E12	1323.076923076923	
1.7685086019326477E12	1342.8571428571427	
1.7685086019404602E12	1358.974358974359	
1.7685086019482727E12	1373.6263736263736	
1.7685086019560852E12	1390.4761904761904	
1.7685086019638977E12	1401.4652014652013	
1.7685086019717102E12	1409.5238095238094	
1.7685086019795227E12	1417.5824175824175	
1.7685086019873352E12	1427.8388278388277	
1.7685086019951477E12	1433.6996336996335	
1.7685086020029602E12	1440.2930402930401	
1.7685086020107727E12	1438.8278388278388	
1.7685086020185852E12	1437.3626373626373	
1.7685086020263977E12	1432.9670329670328	
1.7685086020342102E12	1430.03663003663	
1.7685086020420227E12	1430.03663003663	
1.7685086020498352E12	1430.03663003663	
1.7685086020576477E12	1428.5714285714284	
1.7685086020654602E12	1430.7692307692307	
1.7685086020732727E12	1434.4322344322343	
1.7685086020810852E12	1432.9670329670328	
1.7685086020888977E12	1431.5018315018315	
1.7685086020967102E12	1431.5018315018315	
1.7685086021045227E12	1429.3040293040292	
1.7685086021123352E12	1433.6996336996335	
1.7685086021201477E12	1436.6300366300366	
1.7685086021279602E12	1431.5018315018315	
1.7685086021357727E12	1421.9780219780218	
1.7685086021435852E12	1411.7216117216117	
1.7685086021513977E12	1397.069597069597	
1.7685086021592102E12	1382.4175824175823	
1.7685086021670227E12	1375.8241758241757	
1.7685086021748352E12	1365.5677655677655	
1.7685086021826477E12	1355.3113553113553	
1.7685086021904602E12	1346.5201465201465	
1.7685086021982727E12	1334.065934065934	
1.7685086022060852E12	1327.4725274725274	
1.7685086022138977E12	1321.6117216117216	
1.7685086022217102E12	1314.2857142857142	
1.7685086022295227E12	1314.2857142857142	
1.7685086022373352E12	1311.3553113553112	
1.7685086022451477E12	1312.087912087912	
1.7685086022529602E12	1320.14652014652	
1.7685086022607727E12	1325.2747252747251	
1.7685086022685852E12	1324.5421245421244	
1.7685086022763977E12	1329.6703296703297	
1.7685086022842102E12	1334.7985347985348	
1.7685086022920227E12	1344.3223443223442	
1.7685086022998352E12	1353.8461538461538	
1.7685086023076477E12	1358.974358974359	
1.7685086023154602E12	1361.1721611721612	
1.7685086023232727E12	1363.3699633699632	
1.7685086023310852E12	1363.3699633699632	
1.7685086023388977E12	1358.974358974359	
1.7685086023467102E12	1357.5091575091574	
1.7685086023545227E12	1355.3113553113553	
1.7685086023623352E12	1349.4505494505493	
1.7685086023701477E12	1346.5201465201465	
1.7685086023779602E12	1341.3919413919414	
1.7685086023857727E12	1334.7985347985348	
1.7685086023935852E12	1326.7399267399267	
1.7685086024013977E12	1317.216117216117	
1.7685086024092102E12	1309.1575091575091	
1.7685086024170227E12	1304.0293040293038	
1.7685086024248352E12	1296.7032967032967	
1.7685086024326477E12	1293.040293040293	
1.7685086024404602E12	1291.5750915750914	
1.7685086024482727E12	1284.2490842490843	
1.7685086024560852E12	1282.7838827838827	
1.7685086024638977E12	1282.051282051282	
1.7685086024717102E12	1286.4468864468863	
1.7685086024795227E12	1291.5750915750914	
1.7685086024873352E12	1291.5750915750914	
1.7685086024951477E12	1290.10989010989	
1.7685086025029602E12	1288.6446886446886	
1.7685086025107727E12	1279.120879120879	
1.7685086025185852E12	1273.9926739926739	
1.7685086025263977E12	1271.7948717948716	
1.7685086025342102E12	1267.3992673992673	
1.7685086025420227E12	1267.3992673992673	
1.7685086025498352E12	1263.7362637362637	
1.7685086025576477E12	1265.2014652014652	
1.7685086025654602E12	1260.07326007326	
1.7685086025732727E12	1258.6080586080586	
1.7685086025810852E12	1255.6776556776556	
1.7685086025888977E12	1246.8864468864467	
1.7685086025967102E12	1244.6886446886447	
1.7685086026045227E12	1240.2930402930401	
1.7685086026123352E12	1236.6300366300366	
1.7685086026201477E12	1235.8974358974358	
1.7685086026279602E12	1234.4322344322343	
1.7685086026357727E12	1227.8388278388277	
1.7685086026435852E12	1224.9084249084249	
1.7685086026513977E12	1224.1758241758241	
1.7685086026592102E12	1229.3040293040292	
1.7685086026670227E12	1231.5018315018315	
1.7685086026748352E12	1238.095238095238	
1.7685086026826477E12	1239.5604395604396	
1.7685086026904602E12	1242.4908424908424	
1.7685086026982727E12	1246.153846153846	
1.7685086027060852E12	1248.3516483516482	
1.7685086027138977E12	1256.4102564102564	
1.7685086027217102E12	1260.8058608058607	
1.7685086027295227E12	1260.07326007326	
1.7685086027373352E12	1262.2710622710622	
1.7685086027451477E12	1266.6666666666665	
1.7685086027529602E12	1271.062271062271	
1.7685086027607727E12	1279.120879120879	
1.7685086027685852E12	1283.5164835164835	
1.7685086027763977E12	1292.3076923076922	
1.7685086027842102E12	1299.6336996336995	
1.7685086027920227E12	1306.227106227106	
1.7685086027998352E12	1313.5531135531135	
1.7685086028076477E12	1320.8791208791208	
1.7685086028154602E12	1323.8095238095236	
1.7685086028232727E12	1331.135531135531	
1.7685086028310852E12	1336.263736263736	
1.7685086028388977E12	1347.985347985348	
1.7685086028467102E12	1359.7069597069597	
1.7685086028545227E12	1372.161172161172	
1.7685086028623352E12	1383.150183150183	
1.7685086028701477E12	1394.8717948717947	
1.7685086028779602E12	1400.7326007326005	
1.7685086028857727E12	1409.5238095238094	
1.7685086028935852E12	1415.3846153846152	
1.7685086029013977E12	1418.3150183150183	
1.7685086029092102E12	1422.7106227106226	
1.7685086029170227E12	1422.7106227106226	
1.7685086029248352E12	1427.8388278388277	
1.7685086029326477E12	1429.3040293040292	
1.7685086029404602E12	1435.164835164835	
1.7685086029482727E12	1435.8974358974358	
1.7685086029560852E12	1440.2930402930401	
1.7685086029638977E12	1435.8974358974358	
1.7685086029717102E12	1432.2344322344322	
1.7685086029795227E12	1422.7106227106226	
1.7685086029873352E12	1417.5824175824175	
1.7685086029951477E12	1410.2564102564102	
1.7685086030029602E12	1409.5238095238094	
1.7685086030107727E12	1405.128205128205	
1.7685086030185852E12	1399.2673992673992	
1.7685086030263977E12	1389.0109890109889	
1.7685086030342102E12	1383.8827838827838	
1.7685086030420227E12	1375.8241758241757	
1.7685086030498352E12	1371.4285714285713	
1.7685086030576477E12	1369.9633699633698	
1.7685086030654602E12	1368.4981684981683	
1.7685086030732727E12	1371.4285714285713	
1.7685086030810852E12	1369.230769230769	
1.7685086030888977E12	1367.032967032967	
1.7685086030967102E12	1363.3699633699632	
1.7685086031045227E12	1358.974358974359	
1.7685086031123352E12	1357.5091575091574	
1.7685086031201477E12	1353.113553113553	
1.7685086031279602E12	1353.113553113553	
1.7685086031357727E12	1350.9157509157508	
1.7685086031435852E12	1353.113553113553	
1.7685086031513977E12	1351.6483516483515	
1.7685086031592102E12	1353.8461538461538	
1.7685086031670227E12	1351.6483516483515	
1.7685086031748352E12	1355.3113553113553	
1.7685086031826477E12	1353.8461538461538	
1.7685086031904602E12	1357.5091575091574	
1.7685086031982727E12	1366.3003663003662	
1.7685086032060852E12	1369.230769230769	
1.7685086032138977E12	1369.230769230769	
1.7685086032217102E12	1369.9633699633698	
1.7685086032295227E12	1363.3699633699632	
1.7685086032373352E12	1361.1721611721612	
1.7685086032451477E12	1353.8461538461538	
1.7685086032529602E12	1350.9157509157508	
1.7685086032607727E12	1348.7179487179487	
1.7685086032685852E12	1346.5201465201465	
1.7685086032763977E12	1353.113553113553	
1.7685086032842102E12	1353.8461538461538	
1.7685086032920227E12	1358.974358974359	
1.7685086032998352E12	1358.2417582417581	
1.7685086033076477E12	1359.7069597069597	
1.7685086033154602E12	1353.113553113553	
1.7685086033232727E12	1350.18315018315	
1.7685086033310852E12	1340.6593406593406	
1.7685086033388977E12	1334.7985347985348	
1.7685086033467102E12	1328.2051282051282	
1.7685086033545227E12	1323.8095238095236	
1.7685086033623352E12	1316.4835164835165	
1.7685086033701477E12	1315.7509157509157	
1.7685086033779602E12	1311.3553113553112	
1.7685086033857727E12	1312.8205128205127	
1.7685086033935852E12	1312.8205128205127	
1.7685086034013977E12	1315.018315018315	
1.7685086034092102E12	1314.2857142857142	
1.7685086034170227E12	1309.89010989011	
1.7685086034248352E12	1306.227106227106	
1.7685086034326477E12	1305.4945054945053	
1.7685086034404602E12	1311.3553113553112	
1.7685086034482727E12	1316.4835164835165	
1.7685086034560852E12	1326.007326007326	
1.7685086034638977E12	1331.135531135531	
1.7685086034717102E12	1336.9963369963368	
1.7685086034795227E12	1336.9963369963368	
1.7685086034873352E12	1337.7289377289376	
1.7685086034951477E12	1332.6007326007325	
1.7685086035029602E12	1331.135531135531	
1.7685086035107727E12	1323.076923076923	
1.7685086035185852E12	1316.4835164835165	
1.7685086035263977E12	1306.227106227106	
1.7685086035342102E12	1294.5054945054944	
1.7685086035420227E12	1284.9816849816848	
1.7685086035498352E12	1277.6556776556777	
1.7685086035576477E12	1280.5860805860805	
1.7685086035654602E12	1282.051282051282	
1.7685086035732727E12	1286.4468864468863	
1.7685086035810852E12	1289.3772893772893	
1.7685086035888977E12	1292.3076923076922	
1.7685086035967102E12	1297.4358974358975	
1.7685086036045227E12	1300.3663003663003	
1.7685086036123352E12	1305.4945054945053	
1.7685086036201477E12	1312.087912087912	
1.7685086036279602E12	1313.5531135531135	
1.7685086036357727E12	1323.076923076923	
1.7685086036435852E12	1330.4029304029302	
1.7685086036513977E12	1342.1245421245421	
1.7685086036592102E12	1352.3809523809523	
1.7685086036670227E12	1361.1721611721612	
1.7685086036748352E12	1372.161172161172	
1.7685086036826477E12	1375.8241758241757	
1.7685086036904602E12	1382.4175824175823	
1.7685086036982727E12	1383.8827838827838	
1.7685086037060852E12	1390.4761904761904	
1.7685086037138977E12	1391.9413919413919	
1.7685086037217102E12	1394.8717948717947	
1.7685086037295227E12	1398.5347985347985	
1.7685086037373352E12	1401.4652014652013	
1.7685086037451477E12	1402.9304029304028	
1.7685086037529602E12	1400.0	
1.7685086037607727E12	1400.7326007326005	
1.7685086037685852E12	1397.8021978021977	
1.7685086037763977E12	1403.6630036630036	
1.7685086037842102E12	1404.3956043956043	
1.7685086037920227E12	1408.7912087912086	
1.7685086037998352E12	1408.058608058608	
1.7685086038076477E12	1413.9194139194137	
1.7685086038154602E12	1416.8498168498168	
1.7685086038232727E12	1423.4432234432234	
1.7685086038310852E12	1429.3040293040292	
1.7685086038388977E12	1430.7692307692307	
1.7685086038467102E12	1432.9670329670328	
1.7685086038545227E12	1427.8388278388277	
1.7685086038623352E12	1427.106227106227	
1.7685086038701477E12	1417.5824175824175	
1.7685086038779602E12	1413.9194139194137	
1.7685086038857727E12	1404.3956043956043	
1.7685086038935852E12	1402.197802197802	
1.7685086039013977E12	1397.069597069597	
1.7685086039092102E12	1398.5347985347985	
1.7685086039170227E12	1397.8021978021977	
1.7685086039248352E12	1397.8021978021977	
1.7685086039326477E12	1391.2087912087911	
1.7685086039404602E12	1385.3479853479853	
1.7685086039482727E12	1378.021978021978	
1.7685086039560852E12	1377.2893772893772	
1.7685086039638977E12	1375.091575091575	
1.7685086039717102E12	1373.6263736263736	
1.7685086039795227E12	1370.6959706959706	
1.7685086039873352E12	1369.9633699633698	
1.7685086039951477E12	1363.3699633699632	
1.7685086040029602E12	1361.1721611721612	
1.7685086040107727E12	1355.3113553113553	
1.7685086040185852E12	1353.8461538461538	
1.7685086040263977E12	1346.5201465201465	
1.7685086040342102E12	1345.054945054945	
1.7685086040420227E12	1342.1245421245421	
1.7685086040498352E12	1344.3223443223442	
1.7685086040576477E12	1344.3223443223442	
1.7685086040654602E12	1351.6483516483515	
1.7685086040732727E12	1356.0439560439559	
1.7685086040810852E12	1363.3699633699632	
1.7685086040888977E12	1369.230769230769	
1.7685086040967102E12	1369.230769230769	
1.7685086041045227E12	1372.161172161172	
1.7685086041123352E12	1371.4285714285713	
1.7685086041201477E12	1367.7655677655678	
1.7685086041279602E12	1364.8351648351647	
1.7685086041357727E12	1356.7765567765566	
1.7685086041435852E12	1350.9157509157508	
1.7685086041513977E12	1341.3919413919414	
1.7685086041592102E12	1336.9963369963368	
1.7685086041670227E12	1333.3333333333333	
1.7685086041748352E12	1326.7399267399267	
1.7685086041826477E12	1328.2051282051282	
1.7685086041904602E12	1326.7399267399267	
1.7685086041982727E12	1320.8791208791208	
1.7685086042060852E12	1313.5531135531135	
1.7685086042138977E12	1301.098901098901	
1.7685086042217102E12	1293.040293040293	
1.7685086042295227E12	1287.179487179487	
1.7685086042373352E12	1283.5164835164835	
1.7685086042451477E12	1285.7142857142856	
1.7685086042529602E12	1293.7728937728937	
1.7685086042607727E12	1296.7032967032967	
1.7685086042685852E12	1301.8315018315018	
1.7685086042763977E12	1304.7619047619046	
1.7685086042842102E12	1315.7509157509157	
1.7685086042920227E12	1320.14652014652	
1.7685086042998352E12	1324.5421245421244	
1.7685086043076477E12	1324.5421245421244	
1.7685086043154602E12	1320.14652014652	
1.7685086043232727E12	1310.6227106227104	
1.7685086043310852E12	1301.098901098901	
1.7685086043388977E12	1293.7728937728937	
1.7685086043467102E12	1290.8424908424909	
1.7685086043545227E12	1290.10989010989	
1.7685086043623352E12	1288.6446886446886	
1.7685086043701477E12	1284.2490842490843	
1.7685086043779602E12	1277.6556776556777	
1.7685086043857727E12	1274.7252747252746	
1.7685086043935852E12	1269.5970695970695	
1.7685086044013977E12	1268.8644688644688	
1.7685086044092102E12	1266.6666666666665	
1.7685086044170227E12	1270.3296703296703	
1.7685086044248352E12	1270.3296703296703	
1.7685086044326477E12	1275.4578754578754	
1.7685086044404602E12	1277.6556776556777	
1.7685086044482727E12	1284.2490842490843	
1.7685086044560852E12	1293.7728937728937	
1.7685086044638977E12	1306.9597069597069	
1.7685086044717102E12	1325.2747252747251	
1.7685086044795227E12	1347.2527472527472	
1.7685086044873352E12	1364.8351648351647	
1.7685086044951477E12	1383.150183150183	
1.7685086045029602E12	1391.9413919413919	
1.7685086045107727E12	1405.128205128205	
1.7685086045185852E12	1412.4542124542124	
1.7685086045263977E12	1418.3150183150183	
1.7685086045342102E12	1426.3736263736262	
1.7685086045420227E12	1432.9670329670328	
1.7685086045498352E12	1437.3626373626373	
1.7685086045576477E12	1436.6300366300366	
1.7685086045654602E12	1435.8974358974358	
1.7685086045732727E12	1430.03663003663	
1.7685086045810852E12	1424.9084249084249	
1.7685086045888977E12	1422.7106227106226	
1.7685086045967102E12	1421.245421245421	
1.7685086046045227E12	1425.6410256410256	
1.7685086046123352E12	1431.5018315018315	
1.7685086046201477E12	1434.4322344322343	
1.7685086046279602E12	1439.5604395604394	
1.7685086046357727E12	1445.4212454212454	
1.7685086046435852E12	1452.7472527472526	
1.7685086046513977E12	1456.4102564102564	
1.7685086046592102E12	1460.8058608058607	
1.7685086046670227E12	1460.07326007326	
1.7685086046748352E12	1460.07326007326	
1.7685086046826477E12	1455.6776556776556	
1.7685086046904602E12	1454.212454212454	
1.7685086046982727E12	1450.5494505494505	
1.7685086047060852E12	1450.5494505494505	
1.7685086047138977E12	1445.4212454212454	
1.7685086047217102E12	1442.4908424908424	
1.7685086047295227E12	1432.2344322344322	
1.7685086047373352E12	1422.7106227106226	
1.7685086047451477E12	1408.7912087912086	
1.7685086047529602E12	1399.2673992673992	
1.7685086047607727E12	1384.6153846153845	
1.7685086047685852E12	1377.2893772893772	
1.7685086047763977E12	1372.8937728937728	
1.7685086047842102E12	1375.8241758241757	
1.7685086047920227E12	1376.5567765567764	
1.7685086047998352E12	1376.5567765567764	
1.7685086048076477E12	1380.952380952381	
1.7685086048154602E12	1380.2197802197802	
1.7685086048232727E12	1379.4871794871794	
1.7685086048310852E12	1372.161172161172	
1.7685086048388977E12	1368.4981684981683	
1.7685086048467102E12	1362.6373626373625	
1.7685086048545227E12	1350.9157509157508	
1.7685086048623352E12	1342.1245421245421	
1.7685086048701477E12	1330.4029304029302	
1.7685086048779602E12	1328.2051282051282	
1.7685086048857727E12	1326.7399267399267	
1.7685086048935852E12	1324.5421245421244	
1.7685086049013977E12	1323.076923076923	
1.7685086049092102E12	1319.4139194139193	
1.7685086049170227E12	1326.007326007326	
1.7685086049248352E12	1327.4725274725274	
1.7685086049326477E12	1333.3333333333333	
1.7685086049404602E12	1334.065934065934	
1.7685086049482727E12	1339.9267399267399	
1.7685086049560852E12	1346.5201465201465	
1.7685086049638977E12	1350.9157509157508	
1.7685086049717102E12	1361.1721611721612	
1.7685086049795227E12	1366.3003663003662	
1.7685086049873352E12	1371.4285714285713	
1.7685086049951477E12	1371.4285714285713	
1.7685086050029602E12	1367.7655677655678	
1.7685086050107727E12	1366.3003663003662	
1.7685086050185852E12	1361.904761904762	
1.7685086050263977E12	1364.102564102564	
1.7685086050342102E12	1361.1721611721612	
1.7685086050420227E12	1361.1721611721612	
1.7685086050498352E12	1361.1721611721612	
1.7685086050576477E12	1358.2417582417581	
1.7685086050654602E12	1360.4395604395604	
1.7685086050732727E12	1361.1721611721612	
1.7685086050810852E12	1364.8351648351647	
1.7685086050888977E12	1369.230769230769	
1.7685086050967102E12	1368.4981684981683	
1.7685086051045227E12	1367.7655677655678	
1.7685086051123352E12	1367.7655677655678	
1.7685086051201477E12	1363.3699633699632	
1.7685086051279602E12	1361.1721611721612	
1.7685086051357727E12	1352.3809523809523	
1.7685086051435852E12	1345.054945054945	
1.7685086051513977E12	1341.3919413919414	
1.7685086051592102E12	1336.263736263736	
1.7685086051670227E12	1334.7985347985348	
1.7685086051748352E12	1329.6703296703297	
1.7685086051826477E12	1325.2747252747251	
1.7685086051904602E12	1323.076923076923	
1.7685086051982727E12	1320.8791208791208	
1.7685086052060852E12	1317.9487179487178	
1.7685086052138977E12	1318.6813186813185	
1.7685086052217102E12	1320.8791208791208	
1.7685086052295227E12	1318.6813186813185	
1.7685086052373352E12	1320.8791208791208	
1.7685086052451477E12	1316.4835164835165	
1.7685086052529602E12	1317.216117216117	
1.7685086052607727E12	1319.4139194139193	
1.7685086052685852E12	1321.6117216117216	
1.7685086052763977E12	1331.135531135531	
1.7685086052842102E12	1338.4615384615383	
1.7685086052920227E12	1346.5201465201465	
1.7685086052998352E12	1358.974358974359	
1.7685086053076477E12	1371.4285714285713	
1.7685086053154602E12	1381.6849816849815	
1.7685086053232727E12	1398.5347985347985	
1.7685086053310852E12	1414.6520146520145	
1.7685086053388977E12	1431.5018315018315	
1.7685086053467102E12	1449.084249084249	
1.7685086053545227E12	1462.2710622710622	
1.7685086053623352E12	1478.3882783882782	
1.7685086053701477E12	1494.5054945054944	
1.7685086053779602E12	1504.7619047619046	
1.7685086053857727E12	1514.2857142857142	
1.7685086053935852E12	1526.007326007326	
1.7685086054013977E12	1531.135531135531	
1.7685086054092102E12	1536.9963369963368	
1.7685086054170227E12	1545.054945054945	
1.7685086054248352E12	1547.985347985348	
1.7685086054326477E12	1549.4505494505493	
1.7685086054404602E12	1553.8461538461538	
1.7685086054482727E12	1553.8461538461538	
1.7685086054560852E12	1558.2417582417581	
1.7685086054638977E12	1558.2417582417581	
1.7685086054717102E12	1563.3699633699632	
1.7685086054795227E12	1563.3699633699632	
1.7685086054873352E12	1563.3699633699632	
1.7685086054951477E12	1561.9047619047617	
1.7685086055029602E12	1561.1721611721612	
1.7685086055107727E12	1563.3699633699632	
1.7685086055185852E12	1561.9047619047617	
1.7685086055263977E12	1563.3699633699632	
1.7685086055342102E12	1558.974358974359	
1.7685086055420227E12	1555.311355311355	
1.7685086055498352E12	1542.8571428571427	
1.7685086055576477E12	1531.135531135531	
1.7685086055654602E12	1521.6117216117216	
1.7685086055732727E12	1513.5531135531135	
1.7685086055810852E12	1512.087912087912	
1.7685086055888977E12	1508.4249084249084	
1.7685086055967102E12	1510.6227106227104	
1.7685086056045227E12	1512.087912087912	
1.7685086056123352E12	1510.6227106227104	
1.7685086056201477E12	1512.087912087912	
1.7685086056279602E12	1515.7509157509157	
1.7685086056357727E12	1515.018315018315	
1.7685086056435852E12	1517.216117216117	
1.7685086056513977E12	1512.8205128205127	
1.7685086056592102E12	1507.6923076923076	
1.7685086056670227E12	1502.5641025641025	
1.7685086056748352E12	1494.5054945054944	
1.7685086056826477E12	1490.8424908424906	
1.7685086056904602E12	1486.4468864468863	
1.7685086056982727E12	1479.8534798534797	
1.7685086057060852E12	1476.923076923077	
1.7685086057138977E12	1468.8644688644688	
1.7685086057217102E12	1467.3992673992673	
1.7685086057295227E12	1464.4688644688645	
1.7685086057373352E12	1460.8058608058607	
1.7685086057451477E12	1459.3406593406592	
1.7685086057529602E12	1452.7472527472526	
1.7685086057607727E12	1448.3516483516482	
1.7685086057685852E12	1441.7582417582416	
1.7685086057763977E12	1430.7692307692307	
1.7685086057842102E12	1424.9084249084249	
1.7685086057920227E12	1421.245421245421	
1.7685086057998352E12	1417.5824175824175	
1.7685086058076477E12	1420.5128205128203	
1.7685086058154602E12	1419.7802197802198	
1.7685086058232727E12	1416.8498168498168	
1.7685086058310852E12	1417.5824175824175	
1.7685086058388977E12	1413.9194139194137	
1.7685086058467102E12	1406.5934065934066	
1.7685086058545227E12	1400.0	
1.7685086058623352E12	1397.8021978021977	
1.7685086058701477E12	1394.139194139194	
1.7685086058779602E12	1393.4065934065934	
1.7685086058857727E12	1395.6043956043954	
1.7685086058935852E12	1394.8717948717947	
1.7685086059013977E12	1394.8717948717947	
1.7685086059092102E12	1400.0	
1.7685086059170227E12	1400.7326007326005	
1.7685086059248352E12	1403.6630036630036	
1.7685086059326477E12	1402.197802197802	
1.7685086059404602E12	1400.0	
1.7685086059482727E12	1402.9304029304028	
1.7685086059560852E12	1402.9304029304028	
1.7685086059638977E12	1402.9304029304028	
1.7685086059717102E12	1401.4652014652013	
1.7685086059795227E12	1397.8021978021977	
1.7685086059873352E12	1392.6739926739926	
1.7685086059951477E12	1393.4065934065934	
1.7685086060029602E12	1388.278388278388	
1.7685086060107727E12	1386.080586080586	
1.7685086060185852E12	1385.3479853479853	
1.7685086060263977E12	1380.952380952381	
1.7685086060342102E12	1381.6849816849815	
1.7685086060420227E12	1380.952380952381	
1.7685086060498352E12	1380.2197802197802	
1.7685086060576477E12	1379.4871794871794	
1.7685086060654602E12	1383.150183150183	
1.7685086060732727E12	1380.952380952381	
1.7685086060810852E12	1375.8241758241757	
1.7685086060888977E12	1369.9633699633698	
1.7685086060967102E12	1366.3003663003662	
1.7685086061045227E12	1367.032967032967	
1.7685086061123352E12	1365.5677655677655	
1.7685086061201477E12	1361.1721611721612	
1.7685086061279602E12	1354.5787545787546	
1.7685086061357727E12	1351.6483516483515	
1.7685086061435852E12	1341.3919413919414	
1.7685086061513977E12	1334.7985347985348	
1.7685086061592102E12	1328.937728937729	
1.7685086061670227E12	1324.5421245421244	
1.7685086061748352E12	1331.135531135531	
1.7685086061826477E12	1341.3919413919414	
1.7685086061904602E12	1351.6483516483515	
1.7685086061982727E12	1362.6373626373625	
1.7685086062060852E12	1378.7545787545787	
1.7685086062138977E12	1392.6739926739926	
1.7685086062217102E12	1405.128205128205	
1.7685086062295227E12	1421.9780219780218	
1.7685086062373352E12	1435.164835164835	
1.7685086062451477E12	1445.4212454212454	
1.7685086062529602E12	1460.8058608058607	
1.7685086062607727E12	1476.923076923077	
1.7685086062685852E12	1491.5750915750914	
1.7685086062763977E12	1507.6923076923076	
1.7685086062842102E12	1519.4139194139193	
1.7685086062920227E12	1533.3333333333333	
1.7685086062998352E12	1541.3919413919414	
1.7685086063076477E12	1546.5201465201465	
1.7685086063154602E12	1555.311355311355	
1.7685086063232727E12	1564.8351648351647	
1.7685086063310852E12	1570.6959706959706	
1.7685086063388977E12	1575.8241758241757	
1.7685086063467102E12	1586.080586080586	
1.7685086063545227E12	1591.2087912087911	
1.7685086063623352E12	1596.3369963369962	
1.7685086063701477E12	1603.6630036630036	
1.7685086063779602E12	1605.8608058608058	
1.7685086063857727E12	1608.7912087912086	
1.7685086063935852E12	1611.7216117216117	
1.7685086064013977E12	1612.4542124542124	
1.7685086064092102E12	1607.3260073260071	
1.7685086064170227E12	1601.4652014652013	
1.7685086064248352E12	1594.139194139194	
1.7685086064326477E12	1583.150183150183	
1.7685086064404602E12	1574.3589743589744	
1.7685086064482727E12	1568.4981684981683	
1.7685086064560852E12	1557.5091575091574	
1.7685086064638977E12	1549.4505494505493	
1.7685086064717102E12	1537.7289377289376	
1.7685086064795227E12	1528.2051282051282	
1.7685086064873352E12	1524.5421245421244	
1.7685086064951477E12	1522.3443223443223	
1.7685086065029602E12	1522.3443223443223	
1.7685086065107727E12	1522.3443223443223	
1.7685086065185852E12	1527.4725274725274	
1.7685086065263977E12	1528.937728937729	
1.7685086065342102E12	1532.6007326007325	
1.7685086065420227E12	1536.263736263736	
1.7685086065498352E12	1534.065934065934	
1.7685086065576477E12	1531.135531135531	
1.7685086065654602E12	1531.135531135531	
1.7685086065732727E12	1526.007326007326	
1.7685086065810852E12	1520.8791208791208	
1.7685086065888977E12	1517.216117216117	
1.7685086065967102E12	1508.4249084249084	
1.7685086066045227E12	1499.6336996336995	
1.7685086066123352E12	1495.970695970696	
1.7685086066201477E12	1488.6446886446886	
1.7685086066279602E12	1483.5164835164835	
1.7685086066357727E12	1480.5860805860805	
1.7685086066435852E12	1477.6556776556777	
1.7685086066513977E12	1471.062271062271	
1.7685086066592102E12	1471.7948717948716	
1.7685086066670227E12	1476.1904761904761	
1.7685086066748352E12	1476.1904761904761	
1.7685086066826477E12	1476.1904761904761	
1.7685086066904602E12	1471.062271062271	
1.7685086066982727E12	1468.131868131868	
1.7685086067060852E12	1460.07326007326	
1.7685086067138977E12	1452.7472527472526	
1.7685086067217102E12	1440.2930402930401	
1.7685086067295227E12	1431.5018315018315	
1.7685086067373352E12	1423.4432234432234	
1.7685086067451477E12	1421.245421245421	
1.7685086067529602E12	1421.9780219780218	
1.7685086067607727E12	1430.7692307692307	
1.7685086067685852E12	1434.4322344322343	
1.7685086067763977E12	1440.2930402930401	
1.7685086067842102E12	1446.8864468864467	
1.7685086067920227E12	1447.6190476190475	
1.7685086067998352E12	1438.095238095238	
1.7685086068076477E12	1427.8388278388277	
1.7685086068154602E12	1417.5824175824175	
1.7685086068232727E12	1411.7216117216117	
1.7685086068310852E12	1408.058608058608	
1.7685086068388977E12	1407.3260073260071	
1.7685086068467102E12	1402.197802197802	
1.7685086068545227E12	1395.6043956043954	
1.7685086068623352E12	1389.0109890109889	
1.7685086068701477E12	1379.4871794871794	
1.7685086068779602E12	1378.021978021978	
1.7685086068857727E12	1378.021978021978	
1.7685086068935852E12	1374.3589743589744	
1.7685086069013977E12	1375.8241758241757	
1.7685086069092102E12	1379.4871794871794	
1.7685086069170227E12	1383.8827838827838	
1.7685086069248352E12	1390.4761904761904	
1.7685086069326477E12	1391.9413919413919	
1.7685086069404602E12	1397.069597069597	
1.7685086069482727E12	1397.069597069597	
1.7685086069560852E12	1399.2673992673992	
1.7685086069638977E12	1395.6043956043954	
1.7685086069717102E12	1389.0109890109889	
1.7685086069795227E12	1382.4175824175823	
1.7685086069873352E12	1378.7545787545787	
1.7685086069951477E12	1373.6263736263736	
1.7685086070029602E12	1364.8351648351647	
1.7685086070107727E12	1356.7765567765566	
1.7685086070185852E12	1345.7875457875457	
1.7685086070263977E12	1337.7289377289376	
1.7685086070342102E12	1331.8681318681317	
1.7685086070420227E12	1335.5311355311355	
1.7685086070498352E12	1336.263736263736	
1.7685086070576477E12	1341.3919413919414	
1.7685086070654602E12	1339.9267399267399	
1.7685086070732727E12	1344.3223443223442	
1.7685086070810852E12	1342.1245421245421	
1.7685086070888977E12	1344.3223443223442	
1.7685086070967102E12	1344.3223443223442	
1.7685086071045227E12	1350.18315018315	
1.7685086071123352E12	1358.974358974359	
1.7685086071201477E12	1367.032967032967	
1.7685086071279602E12	1380.952380952381	
1.7685086071357727E12	1395.6043956043954	
1.7685086071435852E12	1416.117216117216	
1.7685086071513977E12	1432.2344322344322	
1.7685086071592102E12	1452.014652014652	
1.7685086071670227E12	1466.6666666666665	
1.7685086071748352E12	1476.923076923077	
1.7685086071826477E12	1487.9120879120878	
1.7685086071904602E12	1496.7032967032967	
1.7685086071982727E12	1513.5531135531135	
1.7685086072060852E12	1526.7399267399267	
1.7685086072138977E12	1545.054945054945	
1.7685086072217102E12	1556.0439560439559	
1.7685086072295227E12	1569.230769230769	
1.7685086072373352E12	1578.021978021978	
1.7685086072451477E12	1583.8827838827838	
1.7685086072529602E12	1594.139194139194	
1.7685086072607727E12	1598.5347985347985	
1.7685086072685852E12	1602.9304029304028	
1.7685086072763977E12	1608.7912087912086	
1.7685086072842102E12	1610.989010989011	
1.7685086072920227E12	1619.047619047619	
1.7685086072998352E12	1619.7802197802196	
1.7685086073076477E12	1624.1758241758241	
1.7685086073154602E12	1619.7802197802196	
1.7685086073232727E12	1618.3150183150183	
1.7685086073310852E12	1614.6520146520145	
1.7685086073388977E12	1610.989010989011	
1.7685086073467102E12	1608.7912087912086	
1.7685086073545227E12	1607.3260073260071	
1.7685086073623352E12	1605.128205128205	
1.7685086073701477E12	1602.9304029304028	
1.7685086073779602E12	1597.069597069597	
1.7685086073857727E12	1591.2087912087911	
1.7685086073935852E12	1578.021978021978	
1.7685086074013977E12	1565.5677655677655	
1.7685086074092102E12	1549.4505494505493	
1.7685086074170227E12	1539.9267399267399	
1.7685086074248352E12	1529.6703296703295	
1.7685086074326477E12	1526.7399267399267	
1.7685086074404602E12	1523.8095238095236	
1.7685086074482727E12	1521.6117216117216	
1.7685086074560852E12	1521.6117216117216	
1.7685086074638977E12	1519.4139194139193	
1.7685086074717102E12	1523.0769230769229	
1.7685086074795227E12	1526.007326007326	
1.7685086074873352E12	1525.2747252747251	
1.7685086074951477E12	1526.7399267399267	
1.7685086075029602E12	1525.2747252747251	
1.7685086075107727E12	1520.8791208791208	
1.7685086075185852E12	1516.4835164835163	
1.7685086075263977E12	1507.6923076923076	
1.7685086075342102E12	1501.8315018315018	
1.7685086075420227E12	1489.3772893772893	
1.7685086075498352E12	1476.923076923077	
1.7685086075576477E12	1466.6666666666665	
1.7685086075654602E12	1454.212454212454	
1.7685086075732727E12	1447.6190476190475	
