Shimmer_6815_Timestamp_Unix_CAL,Shimmer_6815_PPG_A13_CAL,Unnamed: 2,inhale,inhale_id,epoch_sec
1768508586987.3352,1276.923076923077,,0,-1,1768508586.9873352
1768508586995.1477,1269.5970695970695,,0,-1,1768508586.9951477
1768508587002.9602,1257.875457875458,,0,-1,1768508587.0029602
1768508587010.7727,1252.7472527472526,,0,-1,1768508587.0107727
1768508587018.5852,1249.8168498168498,,0,-1,1768508587.0185852
1768508587026.3977,1248.3516483516482,,0,-1,1768508587.0263977
1768508587034.2102,1246.8864468864467,,0,-1,1768508587.0342102
1768508587042.0227,1245.4212454212454,,0,-1,1768508587.0420227
1768508587049.8352,1249.084249084249,,0,-1,1768508587.0498352
1768508587057.6477,1253.479853479853,,0,-1,1768508587.0576477
1768508587065.4602,1261.5384615384614,,0,-1,1768508587.0654602
1768508587073.2727,1274.7252747252746,,0,-1,1768508587.0732727
1768508587081.0852,1286.4468864468863,,0,-1,1768508587.0810852
1768508587088.8977,1304.0293040293038,,0,-1,1768508587.0888977
1768508587096.7102,1320.14652014652,,0,-1,1768508587.0967102
1768508587104.5227,1335.5311355311355,,0,-1,1768508587.1045227
1768508587112.3352,1350.18315018315,,0,-1,1768508587.1123352
1768508587120.1477,1363.3699633699632,,0,-1,1768508587.1201477
1768508587127.9602,1378.021978021978,,0,-1,1768508587.1279602
1768508587135.7727,1394.139194139194,,0,-1,1768508587.1357727
1768508587143.5852,1405.128205128205,,0,-1,1768508587.1435852
1768508587151.3977,1414.6520146520145,,0,-1,1768508587.1513977
1768508587159.2102,1417.5824175824175,,0,-1,1768508587.1592102
1768508587167.0227,1423.4432234432234,,0,-1,1768508587.1670227
1768508587174.8352,1424.9084249084249,,0,-1,1768508587.1748352
1768508587182.6477,1424.175824175824,,0,-1,1768508587.1826477
1768508587190.4602,1424.9084249084249,,0,-1,1768508587.1904602
1768508587198.2727,1427.8388278388277,,0,-1,1768508587.1982727
1768508587206.0852,1435.8974358974358,,0,-1,1768508587.2060852
1768508587213.8977,1441.7582417582416,,0,-1,1768508587.2138977
1768508587221.7102,1447.6190476190477,,0,-1,1768508587.2217102
1768508587229.5227,1450.5494505494505,,0,-1,1768508587.2295227
1768508587237.3352,1447.6190476190477,,0,-1,1768508587.2373352
1768508587245.1477,1448.3516483516482,,0,-1,1768508587.2451477
1768508587252.9602,1444.688644688645,,0,-1,1768508587.2529602
1768508587260.7727,1444.688644688645,,0,-1,1768508587.2607727
1768508587268.5852,1441.7582417582416,,0,-1,1768508587.2685852
1768508587276.3977,1440.29304029304,,0,-1,1768508587.2763977
1768508587284.2102,1448.3516483516482,,1,0,1768508587.2842102
1768508587292.0227,1451.2820512820513,,1,0,1768508587.2920227
1768508587299.8352,1456.4102564102564,,1,0,1768508587.2998352
1768508587307.6477,1458.6080586080584,,1,0,1768508587.3076477
1768508587315.4602,1458.6080586080584,,1,0,1768508587.3154602
1768508587323.2727,1460.07326007326,,1,0,1768508587.3232727
1768508587331.0852,1454.9450549450548,,1,0,1768508587.3310852
1768508587338.8977,1444.688644688645,,1,0,1768508587.3388977
1768508587346.7102,1437.362637362637,,1,0,1768508587.3467102
1768508587354.5227,1432.2344322344322,,1,0,1768508587.3545227
1768508587362.3352,1428.5714285714284,,1,0,1768508587.3623352
1768508587370.1477,1422.7106227106226,,1,0,1768508587.3701477
1768508587377.9602,1417.5824175824175,,1,0,1768508587.3779602
1768508587385.7727,1409.5238095238094,,1,0,1768508587.3857727
1768508587393.5852,1405.128205128205,,1,0,1768508587.3935852
1768508587401.3977,1397.8021978021975,,1,0,1768508587.4013977
1768508587409.2102,1397.8021978021975,,1,0,1768508587.4092102
1768508587417.0227,1398.5347985347985,,1,0,1768508587.4170227
1768508587424.8352,1406.5934065934066,,1,0,1768508587.4248352
1768508587432.6477,1409.5238095238094,,1,0,1768508587.4326477
1768508587440.4602,1415.3846153846152,,1,0,1768508587.4404602
1768508587448.2727,1416.117216117216,,1,0,1768508587.4482727
1768508587456.0852,1417.5824175824175,,1,0,1768508587.4560852
1768508587463.8977,1418.3150183150185,,1,0,1768508587.4638977
1768508587471.7102,1414.6520146520145,,1,0,1768508587.4717102
1768508587479.5227,1413.9194139194135,,1,0,1768508587.4795227
1768508587487.3352,1411.7216117216117,,1,0,1768508587.4873352
1768508587495.1477,1413.1868131868132,,1,0,1768508587.4951477
1768508587502.9602,1410.989010989011,,1,0,1768508587.5029602
1768508587510.7727,1408.7912087912086,,1,0,1768508587.5107727
1768508587518.5852,1405.8608058608058,,1,0,1768508587.5185852
1768508587526.3977,1398.5347985347985,,1,0,1768508587.5263977
1768508587534.2102,1395.6043956043954,,1,0,1768508587.5342102
1768508587542.0227,1389.0109890109889,,1,0,1768508587.5420227
1768508587549.8352,1386.080586080586,,1,0,1768508587.5498352
1768508587557.6477,1378.7545787545787,,1,0,1768508587.5576477
1768508587565.4602,1376.5567765567764,,1,0,1768508587.5654602
1768508587573.2727,1370.6959706959706,,1,0,1768508587.5732727
1768508587581.0852,1369.230769230769,,1,0,1768508587.5810852
1768508587588.8977,1368.4981684981683,,1,0,1768508587.5888977
1768508587596.7102,1366.3003663003662,,1,0,1768508587.5967102
1768508587604.5227,1369.230769230769,,1,0,1768508587.6045227
1768508587612.3352,1368.4981684981683,,1,0,1768508587.6123352
1768508587620.1477,1374.3589743589744,,1,0,1768508587.6201477
1768508587627.9602,1376.5567765567764,,1,0,1768508587.6279602
1768508587635.7727,1378.7545787545787,,1,0,1768508587.6357727
1768508587643.5852,1378.7545787545787,,1,0,1768508587.6435852
1768508587651.3977,1377.2893772893772,,1,0,1768508587.6513977
1768508587659.2102,1371.428571428571,,1,0,1768508587.6592102
1768508587667.0227,1365.5677655677655,,1,0,1768508587.6670227
1768508587674.8352,1356.7765567765566,,1,0,1768508587.6748352
1768508587682.6477,1347.985347985348,,1,0,1768508587.6826477
1768508587690.4602,1336.263736263736,,1,0,1768508587.6904602
1768508587698.2727,1328.2051282051282,,1,0,1768508587.6982727
1768508587706.0852,1317.216117216117,,1,0,1768508587.7060852
1768508587713.8977,1309.89010989011,,1,0,1768508587.7138977
1768508587721.7102,1306.227106227106,,1,0,1768508587.7217102
1768508587729.5227,1300.3663003663005,,1,0,1768508587.7295227
1768508587737.3352,1302.5641025641023,,1,0,1768508587.7373352
1768508587745.1477,1301.098901098901,,1,0,1768508587.7451477
1768508587752.9602,1303.2967032967033,,1,0,1768508587.7529602
1768508587760.7727,1309.1575091575091,,1,0,1768508587.7607727
1768508587768.5852,1312.087912087912,,1,0,1768508587.7685852
1768508587776.3977,1320.8791208791208,,1,0,1768508587.7763977
1768508587784.2102,1323.8095238095236,,1,0,1768508587.7842102
1768508587792.0227,1320.8791208791208,,1,0,1768508587.7920227
1768508587799.8352,1318.6813186813183,,1,0,1768508587.7998352
1768508587807.6477,1312.8205128205127,,1,0,1768508587.8076477
1768508587815.4602,1312.8205128205127,,1,0,1768508587.8154602
1768508587823.2727,1311.3553113553112,,1,0,1768508587.8232727
1768508587831.0852,1316.4835164835165,,1,0,1768508587.8310852
1768508587838.8977,1315.7509157509155,,1,0,1768508587.8388977
1768508587846.7102,1320.8791208791208,,1,0,1768508587.8467102
1768508587854.5227,1322.3443223443223,,1,0,1768508587.8545227
1768508587862.3352,1324.5421245421244,,1,0,1768508587.8623352
1768508587870.1477,1324.5421245421244,,1,0,1768508587.8701477
1768508587877.9602,1319.4139194139193,,1,0,1768508587.8779602
1768508587885.7727,1316.4835164835165,,1,0,1768508587.8857727
1768508587893.5852,1309.1575091575091,,1,0,1768508587.8935852
1768508587901.3977,1298.9010989010987,,1,0,1768508587.9013977
1768508587909.2102,1287.9120879120878,,1,0,1768508587.9092102
1768508587917.0227,1278.3882783882782,,1,0,1768508587.9170227
1768508587924.8352,1276.190476190476,,1,0,1768508587.9248352
1768508587932.6477,1273.260073260073,,1,0,1768508587.9326477
1768508587940.4602,1273.260073260073,,1,0,1768508587.9404602
1768508587948.2727,1274.7252747252746,,1,0,1768508587.9482727
1768508587956.0852,1278.3882783882782,,1,0,1768508587.9560852
1768508587963.8977,1279.8534798534797,,1,0,1768508587.9638977
1768508587971.7102,1285.7142857142856,,1,0,1768508587.9717102
1768508587979.5227,1289.3772893772891,,1,0,1768508587.9795227
1768508587987.3352,1288.6446886446886,,1,0,1768508587.9873352
1768508587995.1477,1290.8424908424909,,1,0,1768508587.9951477
1768508588002.9602,1293.7728937728937,,1,0,1768508588.0029602
1768508588010.7727,1295.2380952380952,,1,0,1768508588.0107727
1768508588018.5852,1299.6336996336995,,1,0,1768508588.0185852
1768508588026.3977,1306.9597069597069,,1,0,1768508588.0263977
1768508588034.2102,1309.89010989011,,1,0,1768508588.0342102
1768508588042.0227,1317.9487179487178,,1,0,1768508588.0420227
1768508588049.8352,1331.135531135531,,1,0,1768508588.0498352
1768508588057.6477,1342.857142857143,,1,0,1768508588.0576477
1768508588065.4602,1355.311355311355,,1,0,1768508588.0654602
1768508588073.2727,1368.4981684981683,,1,0,1768508588.0732727
1768508588081.0852,1375.091575091575,,1,0,1768508588.0810852
1768508588088.8977,1383.8827838827838,,1,0,1768508588.0888977
1768508588096.7102,1394.8717948717947,,1,0,1768508588.0967102
1768508588104.5227,1402.9304029304028,,1,0,1768508588.1045227
1768508588112.3352,1413.9194139194135,,1,0,1768508588.1123352
1768508588120.1477,1428.5714285714284,,1,0,1768508588.1201477
1768508588127.9602,1439.5604395604394,,1,0,1768508588.1279602
1768508588135.7727,1452.014652014652,,1,0,1768508588.1357727
1768508588143.5852,1464.4688644688645,,1,0,1768508588.1435852
1768508588151.3977,1470.3296703296703,,1,0,1768508588.1513977
1768508588159.2102,1475.4578754578754,,1,0,1768508588.1592102
1768508588167.0227,1479.120879120879,,1,0,1768508588.1670227
1768508588174.8352,1480.5860805860805,,1,0,1768508588.1748352
1768508588182.6477,1481.3186813186812,,1,0,1768508588.1826477
1768508588190.4602,1477.6556776556777,,1,0,1768508588.1904602
1768508588198.2727,1469.5970695970695,,1,0,1768508588.1982727
1768508588206.0852,1458.6080586080584,,1,0,1768508588.2060852
1768508588213.8977,1447.6190476190477,,1,0,1768508588.2138977
1768508588221.7102,1440.29304029304,,1,0,1768508588.2217102
1768508588229.5227,1436.6300366300366,,1,0,1768508588.2295227
1768508588237.3352,1431.5018315018317,,1,0,1768508588.2373352
1768508588245.1477,1424.175824175824,,1,0,1768508588.2451477
1768508588252.9602,1414.6520146520145,,1,0,1768508588.2529602
1768508588260.7727,1406.5934065934066,,1,0,1768508588.2607727
1768508588268.5852,1406.5934065934066,,1,0,1768508588.2685852
1768508588276.3977,1411.7216117216117,,1,0,1768508588.2763977
1768508588284.2102,1417.5824175824175,,1,0,1768508588.2842102
1768508588292.0227,1421.245421245421,,1,0,1768508588.2920227
1768508588299.8352,1419.7802197802198,,1,0,1768508588.2998352
1768508588307.6477,1419.7802197802198,,1,0,1768508588.3076477
1768508588315.4602,1419.7802197802198,,1,0,1768508588.3154602
1768508588323.2727,1418.3150183150185,,1,0,1768508588.3232727
1768508588331.0852,1411.7216117216117,,1,0,1768508588.3310852
1768508588338.8977,1405.128205128205,,1,0,1768508588.3388977
1768508588346.7102,1397.8021978021975,,1,0,1768508588.3467102
1768508588354.5227,1391.2087912087911,,1,0,1768508588.3545227
1768508588362.3352,1386.8131868131868,,1,0,1768508588.3623352
1768508588370.1477,1381.6849816849815,,1,0,1768508588.3701477
1768508588377.9602,1375.091575091575,,1,0,1768508588.3779602
1768508588385.7727,1374.3589743589744,,1,0,1768508588.3857727
1768508588393.5852,1374.3589743589744,,1,0,1768508588.3935852
1768508588401.3977,1376.5567765567764,,1,0,1768508588.4013977
1768508588409.2102,1373.6263736263736,,1,0,1768508588.4092102
1768508588417.0227,1372.8937728937728,,1,0,1768508588.4170227
1768508588424.8352,1370.6959706959706,,1,0,1768508588.4248352
1768508588432.6477,1367.7655677655678,,1,0,1768508588.4326477
1768508588440.4602,1367.032967032967,,1,0,1768508588.4404602
1768508588448.2727,1369.230769230769,,1,0,1768508588.4482727
1768508588456.0852,1372.8937728937728,,1,0,1768508588.4560852
1768508588463.8977,1375.091575091575,,1,0,1768508588.4638977
1768508588471.7102,1375.8241758241757,,1,0,1768508588.4717102
1768508588479.5227,1373.6263736263736,,1,0,1768508588.4795227
1768508588487.3352,1369.230769230769,,1,0,1768508588.4873352
1768508588495.1477,1362.6373626373625,,1,0,1768508588.4951477
1768508588502.9602,1356.043956043956,,1,0,1768508588.5029602
1768508588510.7727,1350.18315018315,,1,0,1768508588.5107727
1768508588518.5852,1340.6593406593406,,1,0,1768508588.5185852
1768508588526.3977,1332.6007326007325,,1,0,1768508588.5263977
1768508588534.2102,1328.937728937729,,1,0,1768508588.5342102
1768508588542.0227,1331.135531135531,,1,0,1768508588.5420227
1768508588549.8352,1335.5311355311355,,1,0,1768508588.5498352
1768508588557.6477,1342.124542124542,,1,0,1768508588.5576477
1768508588565.4602,1349.4505494505493,,1,0,1768508588.5654602
1768508588573.2727,1354.5787545787546,,1,0,1768508588.5732727
1768508588581.0852,1356.043956043956,,1,0,1768508588.5810852
1768508588588.8977,1358.241758241758,,1,0,1768508588.5888977
1768508588596.7102,1360.4395604395604,,1,0,1768508588.5967102
1768508588604.5227,1361.904761904762,,1,0,1768508588.6045227
1768508588612.3352,1361.904761904762,,1,0,1768508588.6123352
1768508588620.1477,1361.1721611721612,,1,0,1768508588.6201477
1768508588627.9602,1360.4395604395604,,1,0,1768508588.6279602
1768508588635.7727,1361.1721611721612,,1,0,1768508588.6357727
1768508588643.5852,1359.7069597069597,,1,0,1768508588.6435852
1768508588651.3977,1353.8461538461538,,1,0,1768508588.6513977
1768508588659.2102,1347.985347985348,,1,0,1768508588.6592102
1768508588667.0227,1340.6593406593406,,1,0,1768508588.6670227
1768508588674.8352,1336.9963369963368,,1,0,1768508588.6748352
1768508588682.6477,1334.7985347985348,,1,0,1768508588.6826477
1768508588690.4602,1326.739926739927,,1,0,1768508588.6904602
1768508588698.2727,1318.6813186813183,,1,0,1768508588.6982727
1768508588706.0852,1309.1575091575091,,1,0,1768508588.7060852
1768508588713.8977,1301.098901098901,,1,0,1768508588.7138977
1768508588721.7102,1295.970695970696,,1,0,1768508588.7217102
1768508588729.5227,1296.7032967032967,,1,0,1768508588.7295227
1768508588737.3352,1298.9010989010987,,1,0,1768508588.7373352
1768508588745.1477,1301.8315018315018,,1,0,1768508588.7451477
1768508588752.9602,1302.5641025641023,,1,0,1768508588.7529602
1768508588760.7727,1301.8315018315018,,1,0,1768508588.7607727
1768508588768.5852,1301.8315018315018,,1,0,1768508588.7685852
1768508588776.3977,1299.6336996336995,,1,0,1768508588.7763977
1768508588784.2102,1298.9010989010987,,1,0,1768508588.7842102
1768508588792.0227,1297.4358974358977,,1,0,1768508588.7920227
1768508588799.8352,1293.040293040293,,1,0,1768508588.7998352
1768508588807.6477,1289.3772893772891,,1,0,1768508588.8076477
1768508588815.4602,1287.179487179487,,1,0,1768508588.8154602
1768508588823.2727,1287.179487179487,,1,0,1768508588.8232727
1768508588831.0852,1288.6446886446886,,1,0,1768508588.8310852
1768508588838.8977,1288.6446886446886,,1,0,1768508588.8388977
1768508588846.7102,1290.10989010989,,1,0,1768508588.8467102
1768508588854.5227,1290.8424908424909,,1,0,1768508588.8545227
1768508588862.3352,1290.8424908424909,,1,0,1768508588.8623352
1768508588870.1477,1287.9120879120878,,1,0,1768508588.8701477
1768508588877.9602,1286.4468864468863,,1,0,1768508588.8779602
1768508588885.7727,1285.7142857142856,,1,0,1768508588.8857727
1768508588893.5852,1283.5164835164835,,1,0,1768508588.8935852
1768508588901.3977,1281.3186813186812,,1,0,1768508588.9013977
1768508588909.2102,1280.5860805860805,,1,0,1768508588.9092102
1768508588917.0227,1281.3186813186812,,1,0,1768508588.9170227
1768508588924.8352,1283.5164835164835,,1,0,1768508588.9248352
1768508588932.6477,1288.6446886446886,,1,0,1768508588.9326477
1768508588940.4602,1296.7032967032967,,1,0,1768508588.9404602
1768508588948.2727,1305.4945054945051,,1,0,1768508588.9482727
1768508588956.0852,1315.018315018315,,1,0,1768508588.9560852
1768508588963.8977,1321.6117216117216,,1,0,1768508588.9638977
1768508588971.7102,1328.937728937729,,1,0,1768508588.9717102
1768508588979.5227,1337.7289377289376,,1,0,1768508588.9795227
1768508588987.3352,1345.7875457875457,,1,0,1768508588.9873352
1768508588995.1477,1352.3809523809523,,1,0,1768508588.9951477
1768508589002.9602,1357.5091575091574,,1,0,1768508589.0029602
1768508589010.7727,1358.974358974359,,1,0,1768508589.0107727
1768508589018.5852,1359.7069597069597,,1,0,1768508589.0185852
1768508589026.3977,1361.904761904762,,1,0,1768508589.0263977
1768508589034.2102,1362.6373626373625,,1,0,1768508589.0342102
1768508589042.0227,1366.3003663003662,,1,0,1768508589.0420227
1768508589049.8352,1369.230769230769,,1,0,1768508589.0498352
1768508589057.6477,1373.6263736263736,,1,0,1768508589.0576477
1768508589065.4602,1380.2197802197802,,1,0,1768508589.0654602
1768508589073.2727,1386.080586080586,,1,0,1768508589.0732727
1768508589081.0852,1391.941391941392,,1,0,1768508589.0810852
1768508589088.8977,1397.069597069597,,1,0,1768508589.0888977
1768508589096.7102,1399.2673992673992,,1,0,1768508589.0967102
1768508589104.5227,1405.128205128205,,1,0,1768508589.1045227
1768508589112.3352,1410.2564102564102,,1,0,1768508589.1123352
1768508589120.1477,1413.1868131868132,,1,0,1768508589.1201477
1768508589127.9602,1413.9194139194135,,1,0,1768508589.1279602
1768508589135.7727,1413.1868131868132,,1,0,1768508589.1357727
1768508589143.5852,1413.9194139194135,,1,0,1768508589.1435852
1768508589151.3977,1412.4542124542124,,1,0,1768508589.1513977
1768508589159.2102,1408.7912087912086,,1,0,1768508589.1592102
1768508589167.0227,1403.6630036630036,,1,0,1768508589.1670227
1768508589174.8352,1397.8021978021975,,1,0,1768508589.1748352
1768508589182.6477,1389.7435897435896,,1,0,1768508589.1826477
1768508589190.4602,1383.150183150183,,1,0,1768508589.1904602
1768508589198.2727,1378.7545787545787,,1,0,1768508589.1982727
1768508589206.0852,1379.4871794871794,,1,0,1768508589.2060852
1768508589213.8977,1380.2197802197802,,1,0,1768508589.2138977
1768508589221.7102,1378.7545787545787,,1,0,1768508589.2217102
1768508589229.5227,1374.3589743589744,,1,0,1768508589.2295227
1768508589237.3352,1372.161172161172,,1,0,1768508589.2373352
1768508589245.1477,1369.230769230769,,1,0,1768508589.2451477
1768508589252.9602,1367.7655677655678,,1,0,1768508589.2529602
1768508589260.7727,1358.974358974359,,1,0,1768508589.2607727
1768508589268.5852,1347.985347985348,,1,0,1768508589.2685852
1768508589276.3977,1339.194139194139,,1,0,1768508589.2763977
1768508589284.2102,1336.263736263736,,1,0,1768508589.2842102
1768508589292.0227,1336.263736263736,,1,0,1768508589.2920227
1768508589299.8352,1339.92673992674,,1,0,1768508589.2998352
1768508589307.6477,1343.5897435897434,,1,0,1768508589.3076477
1768508589315.4602,1345.7875457875457,,1,0,1768508589.3154602
1768508589323.2727,1347.2527472527472,,1,0,1768508589.3232727
1768508589331.0852,1345.054945054945,,1,0,1768508589.3310852
1768508589338.8977,1342.124542124542,,1,0,1768508589.3388977
1768508589346.7102,1338.4615384615383,,1,0,1768508589.3467102
1768508589354.5227,1336.263736263736,,1,0,1768508589.3545227
1768508589362.3352,1336.9963369963368,,1,0,1768508589.3623352
1768508589370.1477,1338.4615384615383,,1,0,1768508589.3701477
1768508589377.9602,1338.4615384615383,,1,0,1768508589.3779602
1768508589385.7727,1340.6593406593406,,1,0,1768508589.3857727
1768508589393.5852,1345.054945054945,,1,0,1768508589.3935852
1768508589401.3977,1355.311355311355,,1,0,1768508589.4013977
1768508589409.2102,1367.7655677655678,,1,0,1768508589.4092102
1768508589417.0227,1374.3589743589744,,1,0,1768508589.4170227
1768508589424.8352,1372.8937728937728,,1,0,1768508589.4248352
1768508589432.6477,1364.8351648351647,,1,0,1768508589.4326477
1768508589440.4602,1355.311355311355,,1,0,1768508589.4404602
1768508589448.2727,1347.985347985348,,1,0,1768508589.4482727
1768508589456.0852,1342.857142857143,,1,0,1768508589.4560852
1768508589463.8977,1336.9963369963368,,1,0,1768508589.4638977
1768508589471.7102,1330.4029304029302,,1,0,1768508589.4717102
1768508589479.5227,1324.5421245421244,,1,0,1768508589.4795227
1768508589487.3352,1320.14652014652,,1,0,1768508589.4873352
1768508589495.1477,1315.018315018315,,1,0,1768508589.4951477
1768508589502.9602,1309.89010989011,,1,0,1768508589.5029602
1768508589510.7727,1308.4249084249084,,1,0,1768508589.5107727
1768508589518.5852,1308.4249084249084,,1,0,1768508589.5185852
1768508589526.3977,1309.1575091575091,,1,0,1768508589.5263977
1768508589534.2102,1312.8205128205127,,1,0,1768508589.5342102
1768508589542.0227,1316.4835164835165,,1,0,1768508589.5420227
1768508589549.8352,1316.4835164835165,,1,0,1768508589.5498352
1768508589557.6477,1316.4835164835165,,1,0,1768508589.5576477
1768508589565.4602,1317.9487179487178,,1,0,1768508589.5654602
1768508589573.2727,1320.14652014652,,1,0,1768508589.5732727
1768508589581.0852,1324.5421245421244,,1,0,1768508589.5810852
1768508589588.8977,1329.6703296703297,,1,0,1768508589.5888977
1768508589596.7102,1333.3333333333333,,1,0,1768508589.5967102
1768508589604.5227,1334.065934065934,,1,0,1768508589.6045227
1768508589612.3352,1331.135531135531,,1,0,1768508589.6123352
1768508589620.1477,1329.6703296703297,,1,0,1768508589.6201477
1768508589627.9602,1328.2051282051282,,1,0,1768508589.6279602
1768508589635.7727,1324.5421245421244,,1,0,1768508589.6357727
1768508589643.5852,1320.14652014652,,1,0,1768508589.6435852
1768508589651.3977,1315.018315018315,,1,0,1768508589.6513977
1768508589659.2102,1308.4249084249084,,1,0,1768508589.6592102
1768508589667.0227,1305.4945054945051,,1,0,1768508589.6670227
1768508589674.8352,1304.7619047619046,,1,0,1768508589.6748352
1768508589682.6477,1304.0293040293038,,1,0,1768508589.6826477
1768508589690.4602,1303.2967032967033,,1,0,1768508589.6904602
1768508589698.2727,1302.5641025641023,,1,0,1768508589.6982727
1768508589706.0852,1301.8315018315018,,1,0,1768508589.7060852
1768508589713.8977,1296.7032967032967,,1,0,1768508589.7138977
1768508589721.7102,1289.3772893772891,,1,0,1768508589.7217102
1768508589729.5227,1282.7838827838827,,1,0,1768508589.7295227
1768508589737.3352,1275.4578754578754,,1,0,1768508589.7373352
1768508589745.1477,1271.062271062271,,1,0,1768508589.7451477
1768508589752.9602,1271.062271062271,,1,0,1768508589.7529602
1768508589760.7727,1277.6556776556777,,1,0,1768508589.7607727
1768508589768.5852,1287.9120879120878,,1,0,1768508589.7685852
1768508589776.3977,1296.7032967032967,,1,0,1768508589.7763977
1768508589784.2102,1306.227106227106,,1,0,1768508589.7842102
1768508589792.0227,1316.4835164835165,,1,0,1768508589.7920227
1768508589799.8352,1326.739926739927,,1,0,1768508589.7998352
1768508589807.6477,1331.135531135531,,1,0,1768508589.8076477
1768508589815.4602,1335.5311355311355,,1,0,1768508589.8154602
1768508589823.2727,1343.5897435897434,,1,0,1768508589.8232727
1768508589831.0852,1352.3809523809523,,1,0,1768508589.8310852
1768508589838.8977,1364.8351648351647,,1,0,1768508589.8388977
1768508589846.7102,1374.3589743589744,,1,0,1768508589.8467102
1768508589854.5227,1380.952380952381,,1,0,1768508589.8545227
1768508589862.3352,1387.5457875457876,,1,0,1768508589.8623352
1768508589870.1477,1391.2087912087911,,1,0,1768508589.8701477
1768508589877.9602,1394.139194139194,,1,0,1768508589.8779602
1768508589885.7727,1394.139194139194,,1,0,1768508589.8857727
1768508589893.5852,1390.4761904761904,,1,0,1768508589.8935852
1768508589901.3977,1384.6153846153843,,1,0,1768508589.9013977
1768508589909.2102,1383.150183150183,,1,0,1768508589.9092102
1768508589917.0227,1384.6153846153843,,1,0,1768508589.9170227
1768508589924.8352,1387.5457875457876,,1,0,1768508589.9248352
1768508589932.6477,1394.8717948717947,,1,0,1768508589.9326477
1768508589940.4602,1403.6630036630036,,1,0,1768508589.9404602
1768508589948.2727,1411.7216117216117,,1,0,1768508589.9482727
1768508589956.0852,1415.3846153846152,,1,0,1768508589.9560852
1768508589963.8977,1416.117216117216,,1,0,1768508589.9638977
1768508589971.7102,1414.6520146520145,,1,0,1768508589.9717102
1768508589979.5227,1413.1868131868132,,1,0,1768508589.9795227
1768508589987.3352,1410.989010989011,,1,0,1768508589.9873352
1768508589995.1477,1409.5238095238094,,1,0,1768508589.9951477
1768508590002.9602,1408.058608058608,,1,0,1768508590.0029602
1768508590010.7727,1405.8608058608058,,1,0,1768508590.0107727
1768508590018.5852,1404.3956043956043,,1,0,1768508590.0185852
1768508590026.3977,1402.9304029304028,,1,0,1768508590.0263977
1768508590034.2102,1402.197802197802,,1,0,1768508590.0342102
1768508590042.0227,1405.8608058608058,,1,0,1768508590.0420227
1768508590049.8352,1405.128205128205,,1,0,1768508590.0498352
1768508590057.6477,1406.5934065934066,,1,0,1768508590.0576477
1768508590065.4602,1408.058608058608,,1,0,1768508590.0654602
1768508590073.2727,1408.7912087912086,,1,0,1768508590.0732727
1768508590081.0852,1408.7912087912086,,1,0,1768508590.0810852
1768508590088.8977,1404.3956043956043,,1,0,1768508590.0888977
1768508590096.7102,1396.3369963369962,,1,0,1768508590.0967102
1768508590104.5227,1387.5457875457876,,1,0,1768508590.1045227
1768508590112.3352,1378.7545787545787,,1,0,1768508590.1123352
1768508590120.1477,1369.230769230769,,1,0,1768508590.1201477
1768508590127.9602,1356.7765567765566,,1,0,1768508590.1279602
1768508590135.7727,1348.7179487179487,,1,0,1768508590.1357727
1768508590143.5852,1347.2527472527472,,1,0,1768508590.1435852
1768508590151.3977,1347.985347985348,,1,0,1768508590.1513977
1768508590159.2102,1348.7179487179487,,1,0,1768508590.1592102
1768508590167.0227,1348.7179487179487,,1,0,1768508590.1670227
1768508590174.8352,1352.3809523809523,,1,0,1768508590.1748352
1768508590182.6477,1355.311355311355,,1,0,1768508590.1826477
1768508590190.4602,1356.043956043956,,1,0,1768508590.1904602
1768508590198.2727,1356.043956043956,,1,0,1768508590.1982727
1768508590206.0852,1356.7765567765566,,1,0,1768508590.2060852
1768508590213.8977,1361.1721611721612,,1,0,1768508590.2138977
1768508590221.7102,1365.5677655677655,,1,0,1768508590.2217102
1768508590229.5227,1367.032967032967,,1,0,1768508590.2295227
1768508590237.3352,1364.102564102564,,1,0,1768508590.2373352
1768508590245.1477,1358.974358974359,,1,0,1768508590.2451477
1768508590252.9602,1356.7765567765566,,1,0,1768508590.2529602
1768508590260.7727,1352.3809523809523,,1,0,1768508590.2607727
1768508590268.5852,1346.5201465201465,,0,-1,1768508590.2685852
1768508590276.3977,1342.857142857143,,0,-1,1768508590.2763977
1768508590284.2102,1341.3919413919414,,0,-1,1768508590.2842102
1768508590292.0227,1340.6593406593406,,0,-1,1768508590.2920227
1768508590299.8352,1336.9963369963368,,0,-1,1768508590.2998352
1768508590307.6477,1331.135531135531,,0,-1,1768508590.3076477
1768508590315.4602,1323.8095238095236,,0,-1,1768508590.3154602
1768508590323.2727,1320.14652014652,,0,-1,1768508590.3232727
1768508590331.0852,1318.6813186813183,,0,-1,1768508590.3310852
1768508590338.8977,1318.6813186813183,,0,-1,1768508590.3388977
1768508590346.7102,1319.4139194139193,,0,-1,1768508590.3467102
1768508590354.5227,1320.14652014652,,0,-1,1768508590.3545227
1768508590362.3352,1318.6813186813183,,0,-1,1768508590.3623352
1768508590370.1477,1316.4835164835165,,0,-1,1768508590.3701477
1768508590377.9602,1313.5531135531137,,0,-1,1768508590.3779602
1768508590385.7727,1312.087912087912,,0,-1,1768508590.3857727
1768508590393.5852,1312.8205128205127,,0,-1,1768508590.3935852
1768508590401.3977,1312.8205128205127,,0,-1,1768508590.4013977
1768508590409.2102,1315.7509157509155,,0,-1,1768508590.4092102
1768508590417.0227,1317.216117216117,,0,-1,1768508590.4170227
1768508590424.8352,1323.8095238095236,,0,-1,1768508590.4248352
1768508590432.6477,1329.6703296703297,,0,-1,1768508590.4326477
1768508590440.4602,1334.065934065934,,0,-1,1768508590.4404602
1768508590448.2727,1338.4615384615383,,0,-1,1768508590.4482727
1768508590456.0852,1337.7289377289376,,0,-1,1768508590.4560852
1768508590463.8977,1333.3333333333333,,0,-1,1768508590.4638977
1768508590471.7102,1325.2747252747251,,0,-1,1768508590.4717102
1768508590479.5227,1317.216117216117,,0,-1,1768508590.4795227
1768508590487.3352,1308.4249084249084,,0,-1,1768508590.4873352
1768508590495.1477,1297.4358974358977,,0,-1,1768508590.4951477
1768508590502.9602,1286.4468864468863,,0,-1,1768508590.5029602
1768508590510.7727,1273.260073260073,,0,-1,1768508590.5107727
1768508590518.5852,1263.7362637362637,,0,-1,1768508590.5185852
1768508590526.3977,1260.07326007326,,0,-1,1768508590.5263977
1768508590534.2102,1263.7362637362637,,0,-1,1768508590.5342102
1768508590542.0227,1274.7252747252746,,0,-1,1768508590.5420227
1768508590549.8352,1282.7838827838827,,0,-1,1768508590.5498352
1768508590557.6477,1289.3772893772891,,0,-1,1768508590.5576477
1768508590565.4602,1295.2380952380952,,0,-1,1768508590.5654602
1768508590573.2727,1298.9010989010987,,0,-1,1768508590.5732727
1768508590581.0852,1299.6336996336995,,0,-1,1768508590.5810852
1768508590588.8977,1299.6336996336995,,0,-1,1768508590.5888977
1768508590596.7102,1298.168498168498,,0,-1,1768508590.5967102
1768508590604.5227,1293.7728937728937,,0,-1,1768508590.6045227
1768508590612.3352,1288.6446886446886,,0,-1,1768508590.6123352
1768508590620.1477,1287.179487179487,,0,-1,1768508590.6201477
1768508590627.9602,1289.3772893772891,,0,-1,1768508590.6279602
1768508590635.7727,1290.10989010989,,0,-1,1768508590.6357727
1768508590643.5852,1291.5750915750914,,0,-1,1768508590.6435852
1768508590651.3977,1293.7728937728937,,0,-1,1768508590.6513977
1768508590659.2102,1299.6336996336995,,0,-1,1768508590.6592102
1768508590667.0227,1308.4249084249084,,0,-1,1768508590.6670227
1768508590674.8352,1315.018315018315,,0,-1,1768508590.6748352
1768508590682.6477,1321.6117216117216,,0,-1,1768508590.6826477
1768508590690.4602,1330.4029304029302,,0,-1,1768508590.6904602
1768508590698.2727,1338.4615384615383,,0,-1,1768508590.6982727
1768508590706.0852,1342.857142857143,,0,-1,1768508590.7060852
1768508590713.8977,1346.5201465201465,,0,-1,1768508590.7138977
1768508590721.7102,1348.7179487179487,,0,-1,1768508590.7217102
1768508590729.5227,1351.6483516483515,,0,-1,1768508590.7295227
1768508590737.3352,1356.043956043956,,0,-1,1768508590.7373352
1768508590745.1477,1362.6373626373625,,0,-1,1768508590.7451477
1768508590752.9602,1370.6959706959706,,0,-1,1768508590.7529602
1768508590760.7727,1383.8827838827838,,0,-1,1768508590.7607727
1768508590768.5852,1399.2673992673992,,0,-1,1768508590.7685852
1768508590776.3977,1410.989010989011,,0,-1,1768508590.7763977
1768508590784.2102,1420.5128205128203,,0,-1,1768508590.7842102
1768508590792.0227,1432.9670329670328,,0,-1,1768508590.7920227
1768508590799.8352,1446.8864468864467,,0,-1,1768508590.7998352
1768508590807.6477,1454.212454212454,,0,-1,1768508590.8076477
1768508590815.4602,1457.142857142857,,0,-1,1768508590.8154602
1768508590823.2727,1454.212454212454,,0,-1,1768508590.8232727
1768508590831.0852,1449.8168498168498,,0,-1,1768508590.8310852
1768508590838.8977,1446.153846153846,,0,-1,1768508590.8388977
1768508590846.7102,1443.2234432234432,,0,-1,1768508590.8467102
1768508590854.5227,1438.095238095238,,0,-1,1768508590.8545227
1768508590862.3352,1434.4322344322345,,0,-1,1768508590.8623352
1768508590870.1477,1431.5018315018317,,0,-1,1768508590.8701477
1768508590877.9602,1426.3736263736262,,0,-1,1768508590.8779602
1768508590885.7727,1424.175824175824,,0,-1,1768508590.8857727
1768508590893.5852,1427.8388278388277,,0,-1,1768508590.8935852
1768508590901.3977,1430.7692307692307,,0,-1,1768508590.9013977
1768508590909.2102,1432.9670329670328,,0,-1,1768508590.9092102
1768508590917.0227,1433.6996336996335,,0,-1,1768508590.9170227
1768508590924.8352,1430.7692307692307,,0,-1,1768508590.9248352
1768508590932.6477,1427.106227106227,,0,-1,1768508590.9326477
1768508590940.4602,1419.047619047619,,0,-1,1768508590.9404602
1768508590948.2727,1406.5934065934066,,0,-1,1768508590.9482727
1768508590956.0852,1396.3369963369962,,0,-1,1768508590.9560852
1768508590963.8977,1386.8131868131868,,0,-1,1768508590.9638977
1768508590971.7102,1379.4871794871794,,0,-1,1768508590.9717102
1768508590979.5227,1374.3589743589744,,0,-1,1768508590.9795227
1768508590987.3352,1367.7655677655678,,0,-1,1768508590.9873352
1768508590995.1477,1361.904761904762,,0,-1,1768508590.9951477
1768508591002.9602,1357.5091575091574,,0,-1,1768508591.0029602
1768508591010.7727,1354.5787545787546,,0,-1,1768508591.0107727
1768508591018.5852,1348.7179487179487,,0,-1,1768508591.0185852
1768508591026.3977,1346.5201465201465,,0,-1,1768508591.0263977
1768508591034.2102,1345.7875457875457,,0,-1,1768508591.0342102
1768508591042.0227,1345.054945054945,,0,-1,1768508591.0420227
1768508591049.8352,1344.3223443223442,,0,-1,1768508591.0498352
1768508591057.6477,1347.985347985348,,0,-1,1768508591.0576477
1768508591065.4602,1353.8461538461538,,0,-1,1768508591.0654602
1768508591073.2727,1357.5091575091574,,0,-1,1768508591.0732727
1768508591081.0852,1364.8351648351647,,0,-1,1768508591.0810852
1768508591088.8977,1374.3589743589744,,0,-1,1768508591.0888977
1768508591096.7102,1380.952380952381,,0,-1,1768508591.0967102
1768508591104.5227,1388.278388278388,,0,-1,1768508591.1045227
1768508591112.3352,1394.8717948717947,,0,-1,1768508591.1123352
1768508591120.1477,1397.069597069597,,0,-1,1768508591.1201477
1768508591127.9602,1391.2087912087911,,0,-1,1768508591.1279602
1768508591135.7727,1383.8827838827838,,0,-1,1768508591.1357727
1768508591143.5852,1375.8241758241757,,0,-1,1768508591.1435852
1768508591151.3977,1369.230769230769,,0,-1,1768508591.1513977
1768508591159.2102,1361.904761904762,,0,-1,1768508591.1592102
1768508591167.0227,1353.8461538461538,,0,-1,1768508591.1670227
1768508591174.8352,1352.3809523809523,,0,-1,1768508591.1748352
1768508591182.6477,1349.4505494505493,,0,-1,1768508591.1826477
1768508591190.4602,1349.4505494505493,,0,-1,1768508591.1904602
1768508591198.2727,1353.8461538461538,,0,-1,1768508591.1982727
1768508591206.0852,1356.043956043956,,0,-1,1768508591.2060852
1768508591213.8977,1356.7765567765566,,0,-1,1768508591.2138977
1768508591221.7102,1356.7765567765566,,0,-1,1768508591.2217102
1768508591229.5227,1352.3809523809523,,0,-1,1768508591.2295227
1768508591237.3352,1348.7179487179487,,0,-1,1768508591.2373352
1768508591245.1477,1346.5201465201465,,0,-1,1768508591.2451477
1768508591252.9602,1341.3919413919414,,0,-1,1768508591.2529602
1768508591260.7727,1331.8681318681315,,0,-1,1768508591.2607727
1768508591268.5852,1326.739926739927,,0,-1,1768508591.2685852
1768508591276.3977,1323.076923076923,,0,-1,1768508591.2763977
1768508591284.2102,1315.7509157509155,,0,-1,1768508591.2842102
1768508591292.0227,1317.9487179487178,,0,-1,1768508591.2920227
1768508591299.8352,1315.7509157509155,,0,-1,1768508591.2998352
1768508591307.6477,1314.2857142857142,,0,-1,1768508591.3076477
1768508591315.4602,1318.6813186813183,,0,-1,1768508591.3154602
1768508591323.2727,1322.3443223443223,,0,-1,1768508591.3232727
1768508591331.0852,1323.076923076923,,0,-1,1768508591.3310852
1768508591338.8977,1326.739926739927,,0,-1,1768508591.3388977
1768508591346.7102,1328.937728937729,,0,-1,1768508591.3467102
1768508591354.5227,1327.4725274725274,,0,-1,1768508591.3545227
1768508591362.3352,1328.937728937729,,0,-1,1768508591.3623352
1768508591370.1477,1329.6703296703297,,0,-1,1768508591.3701477
1768508591377.9602,1326.739926739927,,0,-1,1768508591.3779602
1768508591385.7727,1320.8791208791208,,0,-1,1768508591.3857727
1768508591393.5852,1315.7509157509155,,0,-1,1768508591.3935852
1768508591401.3977,1311.3553113553112,,0,-1,1768508591.4013977
1768508591409.2102,1304.0293040293038,,0,-1,1768508591.4092102
1768508591417.0227,1302.5641025641023,,0,-1,1768508591.4170227
1768508591424.8352,1301.8315018315018,,0,-1,1768508591.4248352
1768508591432.6477,1297.4358974358977,,0,-1,1768508591.4326477
1768508591440.4602,1296.7032967032967,,0,-1,1768508591.4404602
1768508591448.2727,1295.2380952380952,,0,-1,1768508591.4482727
1768508591456.0852,1287.9120879120878,,0,-1,1768508591.4560852
1768508591463.8977,1284.2490842490845,,0,-1,1768508591.4638977
1768508591471.7102,1279.120879120879,,0,-1,1768508591.4717102
1768508591479.5227,1271.7948717948716,,0,-1,1768508591.4795227
1768508591487.3352,1268.131868131868,,0,-1,1768508591.4873352
1768508591495.1477,1268.131868131868,,0,-1,1768508591.4951477
1768508591502.9602,1268.131868131868,,0,-1,1768508591.5029602
1768508591510.7727,1272.5274725274724,,0,-1,1768508591.5107727
1768508591518.5852,1271.7948717948716,,0,-1,1768508591.5185852
1768508591526.3977,1274.7252747252746,,0,-1,1768508591.5263977
1768508591534.2102,1274.7252747252746,,0,-1,1768508591.5342102
1768508591542.0227,1282.7838827838827,,0,-1,1768508591.5420227
1768508591549.8352,1287.9120879120878,,0,-1,1768508591.5498352
1768508591557.6477,1293.7728937728937,,0,-1,1768508591.5576477
1768508591565.4602,1302.5641025641023,,0,-1,1768508591.5654602
1768508591573.2727,1307.6923076923076,,0,-1,1768508591.5732727
1768508591581.0852,1308.4249084249084,,0,-1,1768508591.5810852
1768508591588.8977,1307.6923076923076,,0,-1,1768508591.5888977
1768508591596.7102,1309.1575091575091,,0,-1,1768508591.5967102
1768508591604.5227,1306.9597069597069,,0,-1,1768508591.6045227
1768508591612.3352,1309.1575091575091,,0,-1,1768508591.6123352
1768508591620.1477,1317.216117216117,,0,-1,1768508591.6201477
1768508591627.9602,1326.007326007326,,0,-1,1768508591.6279602
1768508591635.7727,1337.7289377289376,,0,-1,1768508591.6357727
1768508591643.5852,1351.6483516483515,,0,-1,1768508591.6435852
1768508591651.3977,1362.6373626373625,,0,-1,1768508591.6513977
1768508591659.2102,1373.6263736263736,,0,-1,1768508591.6592102
1768508591667.0227,1386.080586080586,,0,-1,1768508591.6670227
1768508591674.8352,1394.8717948717947,,0,-1,1768508591.6748352
1768508591682.6477,1410.2564102564102,,0,-1,1768508591.6826477
1768508591690.4602,1423.4432234432234,,0,-1,1768508591.6904602
1768508591698.2727,1435.8974358974358,,0,-1,1768508591.6982727
1768508591706.0852,1449.084249084249,,0,-1,1768508591.7060852
1768508591713.8977,1455.6776556776556,,0,-1,1768508591.7138977
1768508591721.7102,1465.201465201465,,0,-1,1768508591.7217102
1768508591729.5227,1472.5274725274724,,0,-1,1768508591.7295227
1768508591737.3352,1476.923076923077,,0,-1,1768508591.7373352
1768508591745.1477,1482.7838827838827,,0,-1,1768508591.7451477
1768508591752.9602,1482.7838827838827,,0,-1,1768508591.7529602
1768508591760.7727,1485.7142857142856,,0,-1,1768508591.7607727
1768508591768.5852,1489.3772893772891,,0,-1,1768508591.7685852
1768508591776.3977,1490.8424908424906,,0,-1,1768508591.7763977
1768508591784.2102,1492.3076923076922,,0,-1,1768508591.7842102
1768508591792.0227,1495.970695970696,,0,-1,1768508591.7920227
1768508591799.8352,1502.5641025641023,,0,-1,1768508591.7998352
1768508591807.6477,1501.8315018315018,,0,-1,1768508591.8076477
1768508591815.4602,1504.7619047619046,,0,-1,1768508591.8154602
1768508591823.2727,1500.3663003663005,,0,-1,1768508591.8232727
1768508591831.0852,1491.5750915750914,,0,-1,1768508591.8310852
1768508591838.8977,1487.179487179487,,0,-1,1768508591.8388977
1768508591846.7102,1476.923076923077,,0,-1,1768508591.8467102
1768508591854.5227,1469.5970695970695,,0,-1,1768508591.8545227
1768508591862.3352,1461.5384615384614,,0,-1,1768508591.8623352
1768508591870.1477,1457.875457875458,,0,-1,1768508591.8701477
1768508591877.9602,1457.142857142857,,0,-1,1768508591.8779602
1768508591885.7727,1453.479853479853,,0,-1,1768508591.8857727
1768508591893.5852,1455.6776556776556,,0,-1,1768508591.8935852
1768508591901.3977,1454.212454212454,,0,-1,1768508591.9013977
1768508591909.2102,1451.2820512820513,,0,-1,1768508591.9092102
1768508591917.0227,1452.014652014652,,0,-1,1768508591.9170227
1768508591924.8352,1450.5494505494505,,0,-1,1768508591.9248352
1768508591932.6477,1453.479853479853,,0,-1,1768508591.9326477
1768508591940.4602,1453.479853479853,,0,-1,1768508591.9404602
1768508591948.2727,1453.479853479853,,0,-1,1768508591.9482727
1768508591956.0852,1450.5494505494505,,0,-1,1768508591.9560852
1768508591963.8977,1448.3516483516482,,0,-1,1768508591.9638977
1768508591971.7102,1445.4212454212454,,0,-1,1768508591.9717102
1768508591979.5227,1441.7582417582416,,0,-1,1768508591.9795227
1768508591987.3352,1438.095238095238,,0,-1,1768508591.9873352
1768508591995.1477,1428.5714285714284,,0,-1,1768508591.9951477
1768508592002.9602,1425.6410256410256,,0,-1,1768508592.0029602
1768508592010.7727,1421.9780219780218,,0,-1,1768508592.0107727
1768508592018.5852,1417.5824175824175,,0,-1,1768508592.0185852
1768508592026.3977,1410.989010989011,,0,-1,1768508592.0263977
1768508592034.2102,1407.3260073260071,,0,-1,1768508592.0342102
1768508592042.0227,1402.197802197802,,0,-1,1768508592.0420227
1768508592049.8352,1403.6630036630036,,0,-1,1768508592.0498352
1768508592057.6477,1402.197802197802,,0,-1,1768508592.0576477
1768508592065.4602,1397.8021978021975,,0,-1,1768508592.0654602
1768508592073.2727,1394.8717948717947,,0,-1,1768508592.0732727
1768508592081.0852,1392.6739926739926,,0,-1,1768508592.0810852
1768508592088.8977,1389.7435897435896,,0,-1,1768508592.0888977
1768508592096.7102,1387.5457875457876,,0,-1,1768508592.0967102
1768508592104.5227,1381.6849816849815,,0,-1,1768508592.1045227
1768508592112.3352,1380.2197802197802,,0,-1,1768508592.1123352
1768508592120.1477,1377.2893772893772,,0,-1,1768508592.1201477
1768508592127.9602,1380.2197802197802,,0,-1,1768508592.1279602
1768508592135.7727,1378.7545787545787,,0,-1,1768508592.1357727
1768508592143.5852,1383.8827838827838,,0,-1,1768508592.1435852
1768508592151.3977,1380.952380952381,,0,-1,1768508592.1513977
1768508592159.2102,1378.7545787545787,,0,-1,1768508592.1592102
1768508592167.0227,1372.8937728937728,,0,-1,1768508592.1670227
1768508592174.8352,1367.7655677655678,,0,-1,1768508592.1748352
1768508592182.6477,1364.102564102564,,0,-1,1768508592.1826477
1768508592190.4602,1361.1721611721612,,0,-1,1768508592.1904602
1768508592198.2727,1362.6373626373625,,0,-1,1768508592.1982727
1768508592206.0852,1357.5091575091574,,0,-1,1768508592.2060852
1768508592213.8977,1357.5091575091574,,0,-1,1768508592.2138977
1768508592221.7102,1353.113553113553,,0,-1,1768508592.2217102
1768508592229.5227,1352.3809523809523,,0,-1,1768508592.2295227
1768508592237.3352,1349.4505494505493,,0,-1,1768508592.2373352
1768508592245.1477,1350.9157509157508,,0,-1,1768508592.2451477
1768508592252.9602,1345.054945054945,,0,-1,1768508592.2529602
1768508592260.7727,1346.5201465201465,,0,-1,1768508592.2607727
1768508592268.5852,1342.857142857143,,0,-1,1768508592.2685852
1768508592276.3977,1345.7875457875457,,0,-1,1768508592.2763977
1768508592284.2102,1342.857142857143,,0,-1,1768508592.2842102
1768508592292.0227,1341.3919413919414,,0,-1,1768508592.2920227
1768508592299.8352,1336.263736263736,,0,-1,1768508592.2998352
1768508592307.6477,1336.263736263736,,0,-1,1768508592.3076477
1768508592315.4602,1331.135531135531,,0,-1,1768508592.3154602
1768508592323.2727,1331.8681318681315,,0,-1,1768508592.3232727
1768508592331.0852,1329.6703296703297,,0,-1,1768508592.3310852
1768508592338.8977,1328.937728937729,,0,-1,1768508592.3388977
1768508592346.7102,1326.739926739927,,0,-1,1768508592.3467102
1768508592354.5227,1323.8095238095236,,0,-1,1768508592.3545227
1768508592362.3352,1323.8095238095236,,0,-1,1768508592.3623352
1768508592370.1477,1317.9487179487178,,0,-1,1768508592.3701477
1768508592377.9602,1318.6813186813183,,0,-1,1768508592.3779602
1768508592385.7727,1315.7509157509155,,0,-1,1768508592.3857727
1768508592393.5852,1316.4835164835165,,0,-1,1768508592.3935852
1768508592401.3977,1313.5531135531137,,0,-1,1768508592.4013977
1768508592409.2102,1315.018315018315,,0,-1,1768508592.4092102
1768508592417.0227,1309.89010989011,,0,-1,1768508592.4170227
1768508592424.8352,1309.1575091575091,,0,-1,1768508592.4248352
1768508592432.6477,1305.4945054945051,,0,-1,1768508592.4326477
1768508592440.4602,1306.227106227106,,0,-1,1768508592.4404602
1768508592448.2727,1304.7619047619046,,0,-1,1768508592.4482727
1768508592456.0852,1307.6923076923076,,0,-1,1768508592.4560852
1768508592463.8977,1307.6923076923076,,0,-1,1768508592.4638977
1768508592471.7102,1309.89010989011,,0,-1,1768508592.4717102
1768508592479.5227,1312.8205128205127,,0,-1,1768508592.4795227
1768508592487.3352,1312.087912087912,,0,-1,1768508592.4873352
1768508592495.1477,1314.2857142857142,,0,-1,1768508592.4951477
1768508592502.9602,1310.6227106227104,,0,-1,1768508592.5029602
1768508592510.7727,1308.4249084249084,,0,-1,1768508592.5107727
1768508592518.5852,1301.8315018315018,,0,-1,1768508592.5185852
1768508592526.3977,1300.3663003663005,,0,-1,1768508592.5263977
1768508592534.2102,1298.168498168498,,0,-1,1768508592.5342102
1768508592542.0227,1293.7728937728937,,0,-1,1768508592.5420227
1768508592549.8352,1291.5750915750914,,0,-1,1768508592.5498352
1768508592557.6477,1286.4468864468863,,0,-1,1768508592.5576477
1768508592565.4602,1293.7728937728937,,0,-1,1768508592.5654602
1768508592573.2727,1300.3663003663005,,0,-1,1768508592.5732727
1768508592581.0852,1311.3553113553112,,0,-1,1768508592.5810852
1768508592588.8977,1318.6813186813183,,0,-1,1768508592.5888977
1768508592596.7102,1331.8681318681315,,0,-1,1768508592.5967102
1768508592604.5227,1342.124542124542,,0,-1,1768508592.6045227
1768508592612.3352,1356.043956043956,,0,-1,1768508592.6123352
1768508592620.1477,1364.8351648351647,,0,-1,1768508592.6201477
1768508592627.9602,1380.2197802197802,,0,-1,1768508592.6279602
1768508592635.7727,1389.0109890109889,,0,-1,1768508592.6357727
1768508592643.5852,1404.3956043956043,,0,-1,1768508592.6435852
1768508592651.3977,1412.4542124542124,,0,-1,1768508592.6513977
1768508592659.2102,1423.4432234432234,,0,-1,1768508592.6592102
1768508592667.0227,1432.2344322344322,,0,-1,1768508592.6670227
1768508592674.8352,1446.153846153846,,0,-1,1768508592.6748352
1768508592682.6477,1457.875457875458,,0,-1,1768508592.6826477
1768508592690.4602,1471.062271062271,,0,-1,1768508592.6904602
1768508592698.2727,1475.4578754578754,,0,-1,1768508592.6982727
1768508592706.0852,1482.7838827838827,,0,-1,1768508592.7060852
1768508592713.8977,1482.051282051282,,0,-1,1768508592.7138977
1768508592721.7102,1487.179487179487,,0,-1,1768508592.7217102
1768508592729.5227,1487.179487179487,,0,-1,1768508592.7295227
1768508592737.3352,1493.7728937728937,,0,-1,1768508592.7373352
1768508592745.1477,1498.168498168498,,0,-1,1768508592.7451477
1768508592752.9602,1500.3663003663005,,0,-1,1768508592.7529602
1768508592760.7727,1501.098901098901,,0,-1,1768508592.7607727
1768508592768.5852,1502.5641025641023,,0,-1,1768508592.7685852
1768508592776.3977,1507.6923076923076,,0,-1,1768508592.7763977
1768508592784.2102,1512.087912087912,,0,-1,1768508592.7842102
1768508592792.0227,1518.6813186813183,,0,-1,1768508592.7920227
1768508592799.8352,1517.216117216117,,0,-1,1768508592.7998352
1768508592807.6477,1520.8791208791208,,0,-1,1768508592.8076477
1768508592815.4602,1520.8791208791208,,0,-1,1768508592.8154602
1768508592823.2727,1526.739926739927,,0,-1,1768508592.8232727
1768508592831.0852,1526.007326007326,,0,-1,1768508592.8310852
1768508592838.8977,1528.937728937729,,0,-1,1768508592.8388977
1768508592846.7102,1522.3443223443223,,0,-1,1768508592.8467102
1768508592854.5227,1515.7509157509155,,0,-1,1768508592.8545227
1768508592862.3352,1503.2967032967033,,0,-1,1768508592.8623352
1768508592870.1477,1493.7728937728937,,0,-1,1768508592.8701477
1768508592877.9602,1479.120879120879,,0,-1,1768508592.8779602
1768508592885.7727,1465.9340659340658,,0,-1,1768508592.8857727
1768508592893.5852,1448.3516483516482,,0,-1,1768508592.8935852
1768508592901.3977,1441.7582417582416,,0,-1,1768508592.9013977
1768508592909.2102,1438.8278388278388,,0,-1,1768508592.9092102
1768508592917.0227,1440.29304029304,,0,-1,1768508592.9170227
1768508592924.8352,1447.6190476190477,,0,-1,1768508592.9248352
1768508592932.6477,1449.084249084249,,0,-1,1768508592.9326477
1768508592940.4602,1456.4102564102564,,0,-1,1768508592.9404602
1768508592948.2727,1455.6776556776556,,0,-1,1768508592.9482727
1768508592956.0852,1457.142857142857,,0,-1,1768508592.9560852
1768508592963.8977,1450.5494505494505,,0,-1,1768508592.9638977
1768508592971.7102,1447.6190476190477,,0,-1,1768508592.9717102
1768508592979.5227,1440.29304029304,,0,-1,1768508592.9795227
1768508592987.3352,1438.095238095238,,0,-1,1768508592.9873352
1768508592995.1477,1431.5018315018317,,0,-1,1768508592.9951477
1768508593002.9602,1432.9670329670328,,0,-1,1768508593.0029602
1768508593010.7727,1430.03663003663,,0,-1,1768508593.0107727
1768508593018.5852,1432.9670329670328,,0,-1,1768508593.0185852
1768508593026.3977,1432.9670329670328,,0,-1,1768508593.0263977
1768508593034.2102,1438.095238095238,,0,-1,1768508593.0342102
1768508593042.0227,1440.29304029304,,0,-1,1768508593.0420227
1768508593049.8352,1438.8278388278388,,0,-1,1768508593.0498352
1768508593057.6477,1437.362637362637,,0,-1,1768508593.0576477
1768508593065.4602,1434.4322344322345,,0,-1,1768508593.0654602
1768508593073.2727,1427.106227106227,,0,-1,1768508593.0732727
1768508593081.0852,1424.175824175824,,0,-1,1768508593.0810852
1768508593088.8977,1416.117216117216,,0,-1,1768508593.0888977
1768508593096.7102,1416.8498168498168,,0,-1,1768508593.0967102
1768508593104.5227,1414.6520146520145,,0,-1,1768508593.1045227
1768508593112.3352,1417.5824175824175,,0,-1,1768508593.1123352
1768508593120.1477,1416.8498168498168,,0,-1,1768508593.1201477
1768508593127.9602,1419.7802197802198,,0,-1,1768508593.1279602
1768508593135.7727,1418.3150183150185,,0,-1,1768508593.1357727
1768508593143.5852,1413.9194139194135,,0,-1,1768508593.1435852
1768508593151.3977,1410.2564102564102,,0,-1,1768508593.1513977
1768508593159.2102,1402.197802197802,,0,-1,1768508593.1592102
1768508593167.0227,1400.0,,0,-1,1768508593.1670227
1768508593174.8352,1394.139194139194,,0,-1,1768508593.1748352
1768508593182.6477,1392.6739926739926,,0,-1,1768508593.1826477
1768508593190.4602,1386.080586080586,,0,-1,1768508593.1904602
1768508593198.2727,1386.080586080586,,0,-1,1768508593.1982727
1768508593206.0852,1380.952380952381,,0,-1,1768508593.2060852
1768508593213.8977,1384.6153846153843,,0,-1,1768508593.2138977
1768508593221.7102,1384.6153846153843,,0,-1,1768508593.2217102
1768508593229.5227,1387.5457875457876,,0,-1,1768508593.2295227
1768508593237.3352,1390.4761904761904,,0,-1,1768508593.2373352
1768508593245.1477,1392.6739926739926,,0,-1,1768508593.2451477
1768508593252.9602,1392.6739926739926,,0,-1,1768508593.2529602
1768508593260.7727,1394.8717948717947,,0,-1,1768508593.2607727
1768508593268.5852,1392.6739926739926,,0,-1,1768508593.2685852
1768508593276.3977,1388.278388278388,,0,-1,1768508593.2763977
1768508593284.2102,1388.278388278388,,0,-1,1768508593.2842102
1768508593292.0227,1391.2087912087911,,0,-1,1768508593.2920227
1768508593299.8352,1391.2087912087911,,0,-1,1768508593.2998352
1768508593307.6477,1391.2087912087911,,0,-1,1768508593.3076477
1768508593315.4602,1387.5457875457876,,0,-1,1768508593.3154602
1768508593323.2727,1382.4175824175825,,0,-1,1768508593.3232727
1768508593331.0852,1376.5567765567764,,0,-1,1768508593.3310852
1768508593338.8977,1369.9633699633698,,0,-1,1768508593.3388977
1768508593346.7102,1365.5677655677655,,0,-1,1768508593.3467102
1768508593354.5227,1358.974358974359,,0,-1,1768508593.3545227
1768508593362.3352,1352.3809523809523,,0,-1,1768508593.3623352
1768508593370.1477,1345.7875457875457,,0,-1,1768508593.3701477
1768508593377.9602,1342.124542124542,,0,-1,1768508593.3779602
1768508593385.7727,1336.263736263736,,0,-1,1768508593.3857727
1768508593393.5852,1328.2051282051282,,0,-1,1768508593.3935852
1768508593401.3977,1320.8791208791208,,0,-1,1768508593.4013977
1768508593409.2102,1312.087912087912,,0,-1,1768508593.4092102
1768508593417.0227,1303.2967032967033,,0,-1,1768508593.4170227
1768508593424.8352,1301.8315018315018,,0,-1,1768508593.4248352
1768508593432.6477,1297.4358974358977,,0,-1,1768508593.4326477
1768508593440.4602,1298.168498168498,,0,-1,1768508593.4404602
1768508593448.2727,1294.5054945054944,,0,-1,1768508593.4482727
1768508593456.0852,1293.040293040293,,0,-1,1768508593.4560852
1768508593463.8977,1288.6446886446886,,0,-1,1768508593.4638977
1768508593471.7102,1285.7142857142856,,0,-1,1768508593.4717102
1768508593479.5227,1287.9120879120878,,0,-1,1768508593.4795227
1768508593487.3352,1288.6446886446886,,0,-1,1768508593.4873352
1768508593495.1477,1291.5750915750914,,0,-1,1768508593.4951477
1768508593502.9602,1293.7728937728937,,0,-1,1768508593.5029602
1768508593510.7727,1301.098901098901,,0,-1,1768508593.5107727
1768508593518.5852,1304.0293040293038,,0,-1,1768508593.5185852
1768508593526.3977,1310.6227106227104,,0,-1,1768508593.5263977
1768508593534.2102,1312.8205128205127,,0,-1,1768508593.5342102
1768508593542.0227,1314.2857142857142,,0,-1,1768508593.5420227
1768508593549.8352,1320.8791208791208,,0,-1,1768508593.5498352
1768508593557.6477,1320.8791208791208,,0,-1,1768508593.5576477
1768508593565.4602,1326.007326007326,,0,-1,1768508593.5654602
1768508593573.2727,1328.2051282051282,,0,-1,1768508593.5732727
1768508593581.0852,1332.6007326007325,,0,-1,1768508593.5810852
1768508593588.8977,1339.194139194139,,0,-1,1768508593.5888977
1768508593596.7102,1343.5897435897434,,0,-1,1768508593.5967102
1768508593604.5227,1352.3809523809523,,0,-1,1768508593.6045227
1768508593612.3352,1358.241758241758,,0,-1,1768508593.6123352
1768508593620.1477,1369.9633699633698,,0,-1,1768508593.6201477
1768508593627.9602,1375.8241758241757,,0,-1,1768508593.6279602
1768508593635.7727,1386.8131868131868,,0,-1,1768508593.6357727
1768508593643.5852,1394.139194139194,,0,-1,1768508593.6435852
1768508593651.3977,1402.9304029304028,,0,-1,1768508593.6513977
1768508593659.2102,1413.1868131868132,,0,-1,1768508593.6592102
1768508593667.0227,1419.047619047619,,0,-1,1768508593.6670227
1768508593674.8352,1429.3040293040292,,0,-1,1768508593.6748352
1768508593682.6477,1435.8974358974358,,0,-1,1768508593.6826477
1768508593690.4602,1446.153846153846,,0,-1,1768508593.6904602
1768508593698.2727,1454.212454212454,,0,-1,1768508593.6982727
1768508593706.0852,1463.7362637362637,,0,-1,1768508593.7060852
1768508593713.8977,1468.8644688644688,,0,-1,1768508593.7138977
1768508593721.7102,1481.3186813186812,,0,-1,1768508593.7217102
1768508593729.5227,1489.3772893772891,,0,-1,1768508593.7295227
1768508593737.3352,1499.6336996336995,,0,-1,1768508593.7373352
1768508593745.1477,1508.4249084249084,,0,-1,1768508593.7451477
1768508593752.9602,1511.3553113553112,,0,-1,1768508593.7529602
1768508593760.7727,1513.5531135531137,,0,-1,1768508593.7607727
1768508593768.5852,1510.6227106227104,,0,-1,1768508593.7685852
1768508593776.3977,1504.7619047619046,,0,-1,1768508593.7763977
1768508593784.2102,1502.5641025641023,,0,-1,1768508593.7842102
1768508593792.0227,1501.098901098901,,0,-1,1768508593.7920227
1768508593799.8352,1497.4358974358972,,0,-1,1768508593.7998352
1768508593807.6477,1497.4358974358972,,0,-1,1768508593.8076477
1768508593815.4602,1499.6336996336995,,0,-1,1768508593.8154602
1768508593823.2727,1498.168498168498,,0,-1,1768508593.8232727
1768508593831.0852,1501.8315018315018,,0,-1,1768508593.8310852
1768508593838.8977,1502.5641025641023,,0,-1,1768508593.8388977
1768508593846.7102,1502.5641025641023,,0,-1,1768508593.8467102
1768508593854.5227,1505.4945054945051,,0,-1,1768508593.8545227
1768508593862.3352,1509.89010989011,,0,-1,1768508593.8623352
1768508593870.1477,1517.9487179487178,,0,-1,1768508593.8701477
1768508593877.9602,1517.216117216117,,0,-1,1768508593.8779602
1768508593885.7727,1520.14652014652,,0,-1,1768508593.8857727
1768508593893.5852,1516.4835164835165,,0,-1,1768508593.8935852
1768508593901.3977,1517.9487179487178,,0,-1,1768508593.9013977
1768508593909.2102,1517.216117216117,,0,-1,1768508593.9092102
1768508593917.0227,1512.087912087912,,0,-1,1768508593.9170227
1768508593924.8352,1510.6227106227104,,0,-1,1768508593.9248352
1768508593932.6477,1498.9010989010987,,0,-1,1768508593.9326477
1768508593940.4602,1487.9120879120878,,0,-1,1768508593.9404602
1768508593948.2727,1469.5970695970695,,0,-1,1768508593.9482727
1768508593956.0852,1457.875457875458,,0,-1,1768508593.9560852
1768508593963.8977,1443.956043956044,,0,-1,1768508593.9638977
1768508593971.7102,1438.8278388278388,,0,-1,1768508593.9717102
1768508593979.5227,1433.6996336996335,,0,-1,1768508593.9795227
1768508593987.3352,1434.4322344322345,,0,-1,1768508593.9873352
1768508593995.1477,1427.8388278388277,,0,-1,1768508593.9951477
1768508594002.9602,1427.106227106227,,0,-1,1768508594.0029602
1768508594010.7727,1424.175824175824,,0,-1,1768508594.0107727
1768508594018.5852,1429.3040293040292,,0,-1,1768508594.0185852
1768508594026.3977,1431.5018315018317,,0,-1,1768508594.0263977
1768508594034.2102,1432.2344322344322,,0,-1,1768508594.0342102
1768508594042.0227,1430.03663003663,,0,-1,1768508594.0420227
1768508594049.8352,1424.9084249084249,,0,-1,1768508594.0498352
1768508594057.6477,1420.5128205128203,,0,-1,1768508594.0576477
1768508594065.4602,1419.047619047619,,0,-1,1768508594.0654602
1768508594073.2727,1419.047619047619,,0,-1,1768508594.0732727
1768508594081.0852,1423.4432234432234,,0,-1,1768508594.0810852
1768508594088.8977,1430.03663003663,,0,-1,1768508594.0888977
1768508594096.7102,1427.106227106227,,0,-1,1768508594.0967102
1768508594104.5227,1423.4432234432234,,0,-1,1768508594.1045227
1768508594112.3352,1417.5824175824175,,0,-1,1768508594.1123352
1768508594120.1477,1408.7912087912086,,0,-1,1768508594.1201477
1768508594127.9602,1405.128205128205,,0,-1,1768508594.1279602
1768508594135.7727,1399.2673992673992,,0,-1,1768508594.1357727
1768508594143.5852,1390.4761904761904,,0,-1,1768508594.1435852
1768508594151.3977,1382.4175824175825,,0,-1,1768508594.1513977
1768508594159.2102,1370.6959706959706,,0,-1,1768508594.1592102
1768508594167.0227,1364.102564102564,,0,-1,1768508594.1670227
1768508594174.8352,1356.7765567765566,,0,-1,1768508594.1748352
1768508594182.6477,1356.7765567765566,,0,-1,1768508594.1826477
1768508594190.4602,1358.241758241758,,0,-1,1768508594.1904602
1768508594198.2727,1356.043956043956,,0,-1,1768508594.1982727
1768508594206.0852,1357.5091575091574,,0,-1,1768508594.2060852
1768508594213.8977,1353.8461538461538,,0,-1,1768508594.2138977
1768508594221.7102,1354.5787545787546,,0,-1,1768508594.2217102
1768508594229.5227,1355.311355311355,,0,-1,1768508594.2295227
1768508594237.3352,1356.7765567765566,,0,-1,1768508594.2373352
1768508594245.1477,1361.1721611721612,,0,-1,1768508594.2451477
1768508594252.9602,1361.1721611721612,,0,-1,1768508594.2529602
1768508594260.7727,1364.102564102564,,0,-1,1768508594.2607727
1768508594268.5852,1366.3003663003662,,0,-1,1768508594.2685852
1768508594276.3977,1367.032967032967,,0,-1,1768508594.2763977
1768508594284.2102,1369.230769230769,,0,-1,1768508594.2842102
1768508594292.0227,1367.7655677655678,,0,-1,1768508594.2920227
1768508594299.8352,1372.8937728937728,,0,-1,1768508594.2998352
1768508594307.6477,1373.6263736263736,,0,-1,1768508594.3076477
1768508594315.4602,1375.091575091575,,0,-1,1768508594.3154602
1768508594323.2727,1372.8937728937728,,0,-1,1768508594.3232727
1768508594331.0852,1369.9633699633698,,1,1,1768508594.3310852
1768508594338.8977,1367.032967032967,,1,1,1768508594.3388977
1768508594346.7102,1361.904761904762,,1,1,1768508594.3467102
1768508594354.5227,1358.974358974359,,1,1,1768508594.3545227
1768508594362.3352,1350.9157509157508,,1,1,1768508594.3623352
1768508594370.1477,1347.2527472527472,,1,1,1768508594.3701477
1768508594377.9602,1339.194139194139,,1,1,1768508594.3779602
1768508594385.7727,1333.3333333333333,,1,1,1768508594.3857727
1768508594393.5852,1330.4029304029302,,1,1,1768508594.3935852
1768508594401.3977,1323.076923076923,,1,1,1768508594.4013977
1768508594409.2102,1321.6117216117216,,1,1,1768508594.4092102
1768508594417.0227,1317.9487179487178,,1,1,1768508594.4170227
1768508594424.8352,1311.3553113553112,,1,1,1768508594.4248352
1768508594432.6477,1309.89010989011,,1,1,1768508594.4326477
1768508594440.4602,1305.4945054945051,,1,1,1768508594.4404602
1768508594448.2727,1308.4249084249084,,1,1,1768508594.4482727
1768508594456.0852,1308.4249084249084,,1,1,1768508594.4560852
1768508594463.8977,1313.5531135531137,,1,1,1768508594.4638977
1768508594471.7102,1322.3443223443223,,1,1,1768508594.4717102
1768508594479.5227,1328.2051282051282,,1,1,1768508594.4795227
1768508594487.3352,1335.5311355311355,,1,1,1768508594.4873352
1768508594495.1477,1341.3919413919414,,1,1,1768508594.4951477
1768508594502.9602,1341.3919413919414,,1,1,1768508594.5029602
1768508594510.7727,1336.263736263736,,1,1,1768508594.5107727
1768508594518.5852,1330.4029304029302,,1,1,1768508594.5185852
1768508594526.3977,1326.007326007326,,1,1,1768508594.5263977
1768508594534.2102,1318.6813186813183,,1,1,1768508594.5342102
1768508594542.0227,1316.4835164835165,,1,1,1768508594.5420227
1768508594549.8352,1320.14652014652,,1,1,1768508594.5498352
1768508594557.6477,1322.3443223443223,,1,1,1768508594.5576477
1768508594565.4602,1330.4029304029302,,1,1,1768508594.5654602
1768508594573.2727,1339.194139194139,,1,1,1768508594.5732727
1768508594581.0852,1343.5897435897434,,1,1,1768508594.5810852
1768508594588.8977,1352.3809523809523,,1,1,1768508594.5888977
1768508594596.7102,1364.8351648351647,,1,1,1768508594.5967102
1768508594604.5227,1378.7545787545787,,1,1,1768508594.6045227
1768508594612.3352,1396.3369963369962,,1,1,1768508594.6123352
1768508594620.1477,1410.989010989011,,1,1,1768508594.6201477
1768508594627.9602,1419.7802197802198,,1,1,1768508594.6279602
1768508594635.7727,1435.8974358974358,,1,1,1768508594.6357727
1768508594643.5852,1455.6776556776556,,1,1,1768508594.6435852
1768508594651.3977,1468.131868131868,,1,1,1768508594.6513977
1768508594659.2102,1479.8534798534797,,1,1,1768508594.6592102
1768508594667.0227,1487.9120879120878,,1,1,1768508594.6670227
1768508594674.8352,1494.5054945054944,,1,1,1768508594.6748352
1768508594682.6477,1498.168498168498,,1,1,1768508594.6826477
1768508594690.4602,1495.2380952380952,,1,1,1768508594.6904602
1768508594698.2727,1495.2380952380952,,1,1,1768508594.6982727
1768508594706.0852,1491.5750915750914,,1,1,1768508594.7060852
1768508594713.8977,1492.3076923076922,,1,1,1768508594.7138977
1768508594721.7102,1495.2380952380952,,1,1,1768508594.7217102
1768508594729.5227,1495.970695970696,,1,1,1768508594.7295227
1768508594737.3352,1496.7032967032967,,1,1,1768508594.7373352
1768508594745.1477,1495.2380952380952,,1,1,1768508594.7451477
1768508594752.9602,1495.2380952380952,,1,1,1768508594.7529602
1768508594760.7727,1493.040293040293,,1,1,1768508594.7607727
1768508594768.5852,1497.4358974358972,,1,1,1768508594.7685852
1768508594776.3977,1498.168498168498,,1,1,1768508594.7763977
1768508594784.2102,1504.0293040293038,,1,1,1768508594.7842102
1768508594792.0227,1504.7619047619046,,1,1,1768508594.7920227
1768508594799.8352,1507.6923076923076,,1,1,1768508594.7998352
1768508594807.6477,1508.4249084249084,,1,1,1768508594.8076477
1768508594815.4602,1504.7619047619046,,1,1,1768508594.8154602
1768508594823.2727,1501.098901098901,,1,1,1768508594.8232727
1768508594831.0852,1494.5054945054944,,1,1,1768508594.8310852
1768508594838.8977,1484.9816849816848,,1,1,1768508594.8388977
1768508594846.7102,1479.8534798534797,,1,1,1768508594.8467102
1768508594854.5227,1481.3186813186812,,1,1,1768508594.8545227
1768508594862.3352,1480.5860805860805,,1,1,1768508594.8623352
1768508594870.1477,1482.7838827838827,,1,1,1768508594.8701477
1768508594877.9602,1479.120879120879,,1,1,1768508594.8779602
1768508594885.7727,1472.5274725274724,,1,1,1768508594.8857727
1768508594893.5852,1467.3992673992673,,1,1,1768508594.8935852
1768508594901.3977,1460.805860805861,,1,1,1768508594.9013977
1768508594909.2102,1460.07326007326,,1,1,1768508594.9092102
1768508594917.0227,1457.875457875458,,1,1,1768508594.9170227
1768508594924.8352,1463.003663003663,,1,1,1768508594.9248352
1768508594932.6477,1463.003663003663,,1,1,1768508594.9326477
1768508594940.4602,1467.3992673992673,,1,1,1768508594.9404602
1768508594948.2727,1466.6666666666663,,1,1,1768508594.9482727
1768508594956.0852,1464.4688644688645,,1,1,1768508594.9560852
1768508594963.8977,1463.7362637362637,,1,1,1768508594.9638977
1768508594971.7102,1457.142857142857,,1,1,1768508594.9717102
1768508594979.5227,1452.014652014652,,1,1,1768508594.9795227
1768508594987.3352,1446.153846153846,,1,1,1768508594.9873352
1768508594995.1477,1438.8278388278388,,1,1,1768508594.9951477
1768508595002.9602,1438.095238095238,,1,1,1768508595.0029602
1768508595010.7727,1437.362637362637,,1,1,1768508595.0107727
1768508595018.5852,1433.6996336996335,,1,1,1768508595.0185852
1768508595026.3977,1431.5018315018317,,1,1,1768508595.0263977
1768508595034.2102,1424.175824175824,,1,1,1768508595.0342102
1768508595042.0227,1416.8498168498168,,1,1,1768508595.0420227
1768508595049.8352,1414.6520146520145,,1,1,1768508595.0498352
1768508595057.6477,1413.9194139194135,,1,1,1768508595.0576477
1768508595065.4602,1410.989010989011,,1,1,1768508595.0654602
1768508595073.2727,1410.989010989011,,1,1,1768508595.0732727
1768508595081.0852,1405.8608058608058,,1,1,1768508595.0810852
1768508595088.8977,1392.6739926739926,,1,1,1768508595.0888977
1768508595096.7102,1381.6849816849815,,1,1,1768508595.0967102
1768508595104.5227,1373.6263736263736,,1,1,1768508595.1045227
1768508595112.3352,1368.4981684981683,,1,1,1768508595.1123352
1768508595120.1477,1368.4981684981683,,1,1,1768508595.1201477
1768508595127.9602,1367.032967032967,,1,1,1768508595.1279602
1768508595135.7727,1366.3003663003662,,1,1,1768508595.1357727
1768508595143.5852,1367.7655677655678,,1,1,1768508595.1435852
1768508595151.3977,1371.428571428571,,1,1,1768508595.1513977
1768508595159.2102,1373.6263736263736,,1,1,1768508595.1592102
1768508595167.0227,1378.7545787545787,,1,1,1768508595.1670227
1768508595174.8352,1383.150183150183,,1,1,1768508595.1748352
1768508595182.6477,1382.4175824175825,,1,1,1768508595.1826477
1768508595190.4602,1384.6153846153843,,1,1,1768508595.1904602
1768508595198.2727,1383.8827838827838,,1,1,1768508595.1982727
1768508595206.0852,1380.2197802197802,,1,1,1768508595.2060852
1768508595213.8977,1384.6153846153843,,1,1,1768508595.2138977
1768508595221.7102,1389.7435897435896,,1,1,1768508595.2217102
1768508595229.5227,1392.6739926739926,,1,1,1768508595.2295227
1768508595237.3352,1397.8021978021975,,1,1,1768508595.2373352
1768508595245.1477,1395.6043956043954,,1,1,1768508595.2451477
1768508595252.9602,1397.069597069597,,1,1,1768508595.2529602
1768508595260.7727,1397.8021978021975,,1,1,1768508595.2607727
1768508595268.5852,1395.6043956043954,,1,1,1768508595.2685852
1768508595276.3977,1394.139194139194,,1,1,1768508595.2763977
1768508595284.2102,1388.278388278388,,1,1,1768508595.2842102
1768508595292.0227,1378.7545787545787,,1,1,1768508595.2920227
1768508595299.8352,1369.9633699633698,,1,1,1768508595.2998352
1768508595307.6477,1355.311355311355,,1,1,1768508595.3076477
1768508595315.4602,1344.3223443223442,,1,1,1768508595.3154602
1768508595323.2727,1330.4029304029302,,1,1,1768508595.3232727
1768508595331.0852,1321.6117216117216,,1,1,1768508595.3310852
1768508595338.8977,1315.018315018315,,1,1,1768508595.3388977
1768508595346.7102,1310.6227106227104,,1,1,1768508595.3467102
1768508595354.5227,1312.087912087912,,1,1,1768508595.3545227
1768508595362.3352,1312.8205128205127,,1,1,1768508595.3623352
1768508595370.1477,1322.3443223443223,,1,1,1768508595.3701477
1768508595377.9602,1331.135531135531,,1,1,1768508595.3779602
1768508595385.7727,1337.7289377289376,,1,1,1768508595.3857727
1768508595393.5852,1345.7875457875457,,1,1,1768508595.3935852
1768508595401.3977,1354.5787545787546,,1,1,1768508595.4013977
1768508595409.2102,1358.974358974359,,1,1,1768508595.4092102
1768508595417.0227,1361.904761904762,,1,1,1768508595.4170227
1768508595424.8352,1364.102564102564,,1,1,1768508595.4248352
1768508595432.6477,1360.4395604395604,,1,1,1768508595.4326477
1768508595440.4602,1356.7765567765566,,1,1,1768508595.4404602
1768508595448.2727,1356.043956043956,,1,1,1768508595.4482727
1768508595456.0852,1353.8461538461538,,1,1,1768508595.4560852
1768508595463.8977,1354.5787545787546,,1,1,1768508595.4638977
1768508595471.7102,1358.241758241758,,1,1,1768508595.4717102
1768508595479.5227,1359.7069597069597,,1,1,1768508595.4795227
1768508595487.3352,1367.032967032967,,1,1,1768508595.4873352
1768508595495.1477,1375.091575091575,,1,1,1768508595.4951477
1768508595502.9602,1384.6153846153843,,1,1,1768508595.5029602
1768508595510.7727,1391.941391941392,,1,1,1768508595.5107727
1768508595518.5852,1398.5347985347985,,1,1,1768508595.5185852
1768508595526.3977,1410.989010989011,,1,1,1768508595.5263977
1768508595534.2102,1421.245421245421,,1,1,1768508595.5342102
1768508595542.0227,1433.6996336996335,,1,1,1768508595.5420227
1768508595549.8352,1448.3516483516482,,1,1,1768508595.5498352
1768508595557.6477,1460.07326007326,,1,1,1768508595.5576477
1768508595565.4602,1465.9340659340658,,1,1,1768508595.5654602
1768508595573.2727,1468.8644688644688,,1,1,1768508595.5732727
1768508595581.0852,1470.3296703296703,,1,1,1768508595.5810852
1768508595588.8977,1470.3296703296703,,1,1,1768508595.5888977
1768508595596.7102,1468.131868131868,,1,1,1768508595.5967102
1768508595604.5227,1472.5274725274724,,1,1,1768508595.6045227
1768508595612.3352,1470.3296703296703,,1,1,1768508595.6123352
1768508595620.1477,1468.131868131868,,1,1,1768508595.6201477
1768508595627.9602,1469.5970695970695,,1,1,1768508595.6279602
1768508595635.7727,1468.131868131868,,1,1,1768508595.6357727
1768508595643.5852,1468.8644688644688,,1,1,1768508595.6435852
1768508595651.3977,1468.131868131868,,1,1,1768508595.6513977
1768508595659.2102,1464.4688644688645,,1,1,1768508595.6592102
1768508595667.0227,1460.07326007326,,1,1,1768508595.6670227
1768508595674.8352,1458.6080586080584,,1,1,1768508595.6748352
1768508595682.6477,1458.6080586080584,,1,1,1768508595.6826477
1768508595690.4602,1460.07326007326,,1,1,1768508595.6904602
1768508595698.2727,1462.2710622710622,,1,1,1768508595.6982727
1768508595706.0852,1463.7362637362637,,1,1,1768508595.7060852
1768508595713.8977,1465.201465201465,,1,1,1768508595.7138977
1768508595721.7102,1467.3992673992673,,1,1,1768508595.7217102
1768508595729.5227,1464.4688644688645,,1,1,1768508595.7295227
1768508595737.3352,1459.3406593406592,,1,1,1768508595.7373352
1768508595745.1477,1456.4102564102564,,1,1,1768508595.7451477
1768508595752.9602,1454.212454212454,,1,1,1768508595.7529602
1768508595760.7727,1452.7472527472526,,1,1,1768508595.7607727
1768508595768.5852,1452.014652014652,,1,1,1768508595.7685852
1768508595776.3977,1449.8168498168498,,1,1,1768508595.7763977
1768508595784.2102,1449.084249084249,,1,1,1768508595.7842102
1768508595792.0227,1446.8864468864467,,1,1,1768508595.7920227
1768508595799.8352,1442.4908424908424,,1,1,1768508595.7998352
1768508595807.6477,1438.8278388278388,,1,1,1768508595.8076477
1768508595815.4602,1435.164835164835,,1,1,1768508595.8154602
1768508595823.2727,1432.9670329670328,,1,1,1768508595.8232727
1768508595831.0852,1427.8388278388277,,1,1,1768508595.8310852
1768508595838.8977,1421.245421245421,,1,1,1768508595.8388977
1768508595846.7102,1415.3846153846152,,1,1,1768508595.8467102
1768508595854.5227,1412.4542124542124,,1,1,1768508595.8545227
1768508595862.3352,1414.6520146520145,,1,1,1768508595.8623352
1768508595870.1477,1417.5824175824175,,1,1,1768508595.8701477
1768508595877.9602,1421.9780219780218,,1,1,1768508595.8779602
1768508595885.7727,1424.175824175824,,1,1,1768508595.8857727
1768508595893.5852,1421.9780219780218,,1,1,1768508595.8935852
1768508595901.3977,1419.047619047619,,1,1,1768508595.9013977
1768508595909.2102,1411.7216117216117,,1,1,1768508595.9092102
1768508595917.0227,1405.128205128205,,1,1,1768508595.9170227
1768508595924.8352,1400.0,,1,1,1768508595.9248352
1768508595932.6477,1398.5347985347985,,1,1,1768508595.9326477
1768508595940.4602,1397.069597069597,,1,1,1768508595.9404602
1768508595948.2727,1392.6739926739926,,1,1,1768508595.9482727
1768508595956.0852,1389.7435897435896,,1,1,1768508595.9560852
1768508595963.8977,1386.8131868131868,,1,1,1768508595.9638977
1768508595971.7102,1384.6153846153843,,1,1,1768508595.9717102
1768508595979.5227,1380.2197802197802,,1,1,1768508595.9795227
1768508595987.3352,1375.8241758241757,,1,1,1768508595.9873352
1768508595995.1477,1372.8937728937728,,1,1,1768508595.9951477
1768508596002.9602,1369.230769230769,,1,1,1768508596.0029602
1768508596010.7727,1367.032967032967,,1,1,1768508596.0107727
1768508596018.5852,1366.3003663003662,,1,1,1768508596.0185852
1768508596026.3977,1366.3003663003662,,1,1,1768508596.0263977
1768508596034.2102,1365.5677655677655,,1,1,1768508596.0342102
1768508596042.0227,1364.102564102564,,1,1,1768508596.0420227
1768508596049.8352,1365.5677655677655,,1,1,1768508596.0498352
1768508596057.6477,1367.032967032967,,1,1,1768508596.0576477
1768508596065.4602,1367.032967032967,,1,1,1768508596.0654602
1768508596073.2727,1367.032967032967,,1,1,1768508596.0732727
1768508596081.0852,1365.5677655677655,,1,1,1768508596.0810852
1768508596088.8977,1365.5677655677655,,1,1,1768508596.0888977
1768508596096.7102,1364.8351648351647,,1,1,1768508596.0967102
1768508596104.5227,1361.1721611721612,,1,1,1768508596.1045227
1768508596112.3352,1354.5787545787546,,1,1,1768508596.1123352
1768508596120.1477,1351.6483516483515,,1,1,1768508596.1201477
1768508596127.9602,1350.9157509157508,,1,1,1768508596.1279602
1768508596135.7727,1351.6483516483515,,1,1,1768508596.1357727
1768508596143.5852,1350.9157509157508,,1,1,1768508596.1435852
1768508596151.3977,1349.4505494505493,,1,1,1768508596.1513977
1768508596159.2102,1350.18315018315,,1,1,1768508596.1592102
1768508596167.0227,1350.9157509157508,,1,1,1768508596.1670227
1768508596174.8352,1351.6483516483515,,1,1,1768508596.1748352
1768508596182.6477,1353.113553113553,,1,1,1768508596.1826477
1768508596190.4602,1350.18315018315,,1,1,1768508596.1904602
1768508596198.2727,1350.18315018315,,1,1,1768508596.1982727
1768508596206.0852,1349.4505494505493,,1,1,1768508596.2060852
1768508596213.8977,1350.9157509157508,,1,1,1768508596.2138977
1768508596221.7102,1350.9157509157508,,1,1,1768508596.2217102
1768508596229.5227,1350.18315018315,,1,1,1768508596.2295227
1768508596237.3352,1345.7875457875457,,1,1,1768508596.2373352
1768508596245.1477,1341.3919413919414,,1,1,1768508596.2451477
1768508596252.9602,1336.9963369963368,,1,1,1768508596.2529602
1768508596260.7727,1334.7985347985348,,1,1,1768508596.2607727
1768508596268.5852,1336.263736263736,,1,1,1768508596.2685852
1768508596276.3977,1339.194139194139,,1,1,1768508596.2763977
1768508596284.2102,1339.194139194139,,1,1,1768508596.2842102
1768508596292.0227,1336.263736263736,,1,1,1768508596.2920227
1768508596299.8352,1329.6703296703297,,1,1,1768508596.2998352
1768508596307.6477,1326.007326007326,,1,1,1768508596.3076477
1768508596315.4602,1320.8791208791208,,1,1,1768508596.3154602
1768508596323.2727,1319.4139194139193,,1,1,1768508596.3232727
1768508596331.0852,1322.3443223443223,,1,1,1768508596.3310852
1768508596338.8977,1328.937728937729,,1,1,1768508596.3388977
1768508596346.7102,1336.9963369963368,,1,1,1768508596.3467102
1768508596354.5227,1346.5201465201465,,1,1,1768508596.3545227
1768508596362.3352,1357.5091575091574,,1,1,1768508596.3623352
1768508596370.1477,1371.428571428571,,1,1,1768508596.3701477
1768508596377.9602,1387.5457875457876,,1,1,1768508596.3779602
1768508596385.7727,1404.3956043956043,,1,1,1768508596.3857727
1768508596393.5852,1420.5128205128203,,1,1,1768508596.3935852
1768508596401.3977,1436.6300366300366,,1,1,1768508596.4013977
1768508596409.2102,1449.8168498168498,,1,1,1768508596.4092102
1768508596417.0227,1461.5384615384614,,1,1,1768508596.4170227
1768508596424.8352,1471.7948717948716,,1,1,1768508596.4248352
1768508596432.6477,1475.4578754578754,,1,1,1768508596.4326477
1768508596440.4602,1473.260073260073,,1,1,1768508596.4404602
1768508596448.2727,1468.131868131868,,1,1,1768508596.4482727
1768508596456.0852,1467.3992673992673,,1,1,1768508596.4560852
1768508596463.8977,1468.131868131868,,1,1,1768508596.4638977
1768508596471.7102,1471.7948717948716,,1,1,1768508596.4717102
1768508596479.5227,1473.260073260073,,1,1,1768508596.4795227
1768508596487.3352,1471.7948717948716,,1,1,1768508596.4873352
1768508596495.1477,1471.7948717948716,,1,1,1768508596.4951477
1768508596502.9602,1475.4578754578754,,1,1,1768508596.5029602
1768508596510.7727,1481.3186813186812,,1,1,1768508596.5107727
1768508596518.5852,1490.10989010989,,1,1,1768508596.5185852
1768508596526.3977,1495.970695970696,,1,1,1768508596.5263977
1768508596534.2102,1499.6336996336995,,1,1,1768508596.5342102
1768508596542.0227,1496.7032967032967,,1,1,1768508596.5420227
1768508596549.8352,1492.3076923076922,,1,1,1768508596.5498352
1768508596557.6477,1487.9120879120878,,1,1,1768508596.5576477
1768508596565.4602,1482.7838827838827,,1,1,1768508596.5654602
1768508596573.2727,1480.5860805860805,,1,1,1768508596.5732727
1768508596581.0852,1476.923076923077,,1,1,1768508596.5810852
1768508596588.8977,1472.5274725274724,,1,1,1768508596.5888977
1768508596596.7102,1465.9340659340658,,1,1,1768508596.5967102
1768508596604.5227,1457.875457875458,,1,1,1768508596.6045227
1768508596612.3352,1449.8168498168498,,1,1,1768508596.6123352
1768508596620.1477,1444.688644688645,,1,1,1768508596.6201477
1768508596627.9602,1441.0256410256409,,1,1,1768508596.6279602
1768508596635.7727,1440.29304029304,,1,1,1768508596.6357727
1768508596643.5852,1440.29304029304,,1,1,1768508596.6435852
1768508596651.3977,1440.29304029304,,1,1,1768508596.6513977
1768508596659.2102,1441.7582417582416,,1,1,1768508596.6592102
1768508596667.0227,1442.4908424908424,,1,1,1768508596.6670227
1768508596674.8352,1439.5604395604394,,1,1,1768508596.6748352
1768508596682.6477,1433.6996336996335,,1,1,1768508596.6826477
1768508596690.4602,1428.5714285714284,,1,1,1768508596.6904602
1768508596698.2727,1423.4432234432234,,1,1,1768508596.6982727
1768508596706.0852,1417.5824175824175,,1,1,1768508596.7060852
1768508596713.8977,1413.9194139194135,,1,1,1768508596.7138977
1768508596721.7102,1410.989010989011,,1,1,1768508596.7217102
1768508596729.5227,1404.3956043956043,,1,1,1768508596.7295227
1768508596737.3352,1397.069597069597,,1,1,1768508596.7373352
1768508596745.1477,1390.4761904761904,,1,1,1768508596.7451477
1768508596752.9602,1387.5457875457876,,1,1,1768508596.7529602
1768508596760.7727,1382.4175824175825,,1,1,1768508596.7607727
1768508596768.5852,1379.4871794871794,,1,1,1768508596.7685852
1768508596776.3977,1378.7545787545787,,1,1,1768508596.7763977
1768508596784.2102,1380.952380952381,,1,1,1768508596.7842102
1768508596792.0227,1386.080586080586,,1,1,1768508596.7920227
1768508596799.8352,1393.4065934065934,,1,1,1768508596.7998352
1768508596807.6477,1400.7326007326003,,1,1,1768508596.8076477
1768508596815.4602,1408.7912087912086,,1,1,1768508596.8154602
1768508596823.2727,1415.3846153846152,,1,1,1768508596.8232727
1768508596831.0852,1421.245421245421,,1,1,1768508596.8310852
1768508596838.8977,1423.4432234432234,,1,1,1768508596.8388977
1768508596846.7102,1422.7106227106226,,1,1,1768508596.8467102
1768508596854.5227,1416.8498168498168,,1,1,1768508596.8545227
1768508596862.3352,1408.058608058608,,1,1,1768508596.8623352
1768508596870.1477,1399.2673992673992,,1,1,1768508596.8701477
1768508596877.9602,1387.5457875457876,,1,1,1768508596.8779602
1768508596885.7727,1374.3589743589744,,1,1,1768508596.8857727
1768508596893.5852,1363.3699633699632,,1,1,1768508596.8935852
1768508596901.3977,1353.8461538461538,,1,1,1768508596.9013977
1768508596909.2102,1346.5201465201465,,1,1,1768508596.9092102
1768508596917.0227,1339.92673992674,,1,1,1768508596.9170227
1768508596924.8352,1335.5311355311355,,1,1,1768508596.9248352
1768508596932.6477,1333.3333333333333,,1,1,1768508596.9326477
1768508596940.4602,1334.065934065934,,1,1,1768508596.9404602
1768508596948.2727,1334.065934065934,,1,1,1768508596.9482727
1768508596956.0852,1333.3333333333333,,1,1,1768508596.9560852
1768508596963.8977,1331.8681318681315,,1,1,1768508596.9638977
1768508596971.7102,1327.4725274725274,,1,1,1768508596.9717102
1768508596979.5227,1325.2747252747251,,1,1,1768508596.9795227
1768508596987.3352,1323.076923076923,,1,1,1768508596.9873352
1768508596995.1477,1323.076923076923,,1,1,1768508596.9951477
1768508597002.9602,1323.8095238095236,,1,1,1768508597.0029602
1768508597010.7727,1327.4725274725274,,1,1,1768508597.0107727
1768508597018.5852,1329.6703296703297,,1,1,1768508597.0185852
1768508597026.3977,1329.6703296703297,,1,1,1768508597.0263977
1768508597034.2102,1328.2051282051282,,1,1,1768508597.0342102
1768508597042.0227,1328.937728937729,,1,1,1768508597.0420227
1768508597049.8352,1327.4725274725274,,1,1,1768508597.0498352
1768508597057.6477,1326.739926739927,,1,1,1768508597.0576477
1768508597065.4602,1320.8791208791208,,1,1,1768508597.0654602
1768508597073.2727,1309.89010989011,,1,1,1768508597.0732727
1768508597081.0852,1304.7619047619046,,1,1,1768508597.0810852
1768508597088.8977,1301.098901098901,,1,1,1768508597.0888977
1768508597096.7102,1301.8315018315018,,1,1,1768508597.0967102
1768508597104.5227,1303.2967032967033,,1,1,1768508597.1045227
1768508597112.3352,1306.227106227106,,1,1,1768508597.1123352
1768508597120.1477,1307.6923076923076,,1,1,1768508597.1201477
1768508597127.9602,1307.6923076923076,,1,1,1768508597.1279602
1768508597135.7727,1309.1575091575091,,1,1,1768508597.1357727
1768508597143.5852,1312.8205128205127,,1,1,1768508597.1435852
1768508597151.3977,1317.9487179487178,,1,1,1768508597.1513977
1768508597159.2102,1325.2747252747251,,1,1,1768508597.1592102
1768508597167.0227,1334.7985347985348,,1,1,1768508597.1670227
1768508597174.8352,1344.3223443223442,,1,1,1768508597.1748352
1768508597182.6477,1356.043956043956,,1,1,1768508597.1826477
1768508597190.4602,1367.032967032967,,1,1,1768508597.1904602
1768508597198.2727,1377.2893772893772,,1,1,1768508597.1982727
1768508597206.0852,1390.4761904761904,,1,1,1768508597.2060852
1768508597213.8977,1402.197802197802,,1,1,1768508597.2138977
1768508597221.7102,1417.5824175824175,,1,1,1768508597.2217102
1768508597229.5227,1426.3736263736262,,1,1,1768508597.2295227
1768508597237.3352,1437.362637362637,,1,1,1768508597.2373352
1768508597245.1477,1449.8168498168498,,1,1,1768508597.2451477
1768508597252.9602,1462.2710622710622,,1,1,1768508597.2529602
1768508597260.7727,1473.992673992674,,1,1,1768508597.2607727
1768508597268.5852,1484.2490842490845,,1,1,1768508597.2685852
1768508597276.3977,1493.7728937728937,,1,1,1768508597.2763977
1768508597284.2102,1500.3663003663005,,1,1,1768508597.2842102
1768508597292.0227,1505.4945054945051,,1,1,1768508597.2920227
1768508597299.8352,1508.4249084249084,,1,1,1768508597.2998352
1768508597307.6477,1511.3553113553112,,1,1,1768508597.3076477
1768508597315.4602,1512.8205128205127,,1,1,1768508597.3154602
1768508597323.2727,1516.4835164835165,,1,1,1768508597.3232727
1768508597331.0852,1516.4835164835165,,1,1,1768508597.3310852
1768508597338.8977,1517.216117216117,,1,1,1768508597.3388977
1768508597346.7102,1517.9487179487178,,1,1,1768508597.3467102
1768508597354.5227,1516.4835164835165,,1,1,1768508597.3545227
1768508597362.3352,1514.2857142857142,,1,1,1768508597.3623352
1768508597370.1477,1512.8205128205127,,1,1,1768508597.3701477
1768508597377.9602,1509.1575091575091,,1,1,1768508597.3779602
1768508597385.7727,1504.7619047619046,,1,1,1768508597.3857727
1768508597393.5852,1501.098901098901,,1,1,1768508597.3935852
1768508597401.3977,1498.168498168498,,1,1,1768508597.4013977
1768508597409.2102,1494.5054945054944,,1,1,1768508597.4092102
1768508597417.0227,1490.10989010989,,1,1,1768508597.4170227
1768508597424.8352,1483.5164835164835,,1,1,1768508597.4248352
1768508597432.6477,1474.7252747252746,,1,1,1768508597.4326477
1768508597440.4602,1463.7362637362637,,1,1,1768508597.4404602
1768508597448.2727,1457.875457875458,,1,1,1768508597.4482727
1768508597456.0852,1453.479853479853,,1,1,1768508597.4560852
1768508597463.8977,1450.5494505494505,,1,1,1768508597.4638977
1768508597471.7102,1444.688644688645,,1,1,1768508597.4717102
1768508597479.5227,1437.362637362637,,1,1,1768508597.4795227
1768508597487.3352,1435.164835164835,,1,1,1768508597.4873352
1768508597495.1477,1430.03663003663,,1,1,1768508597.4951477
1768508597502.9602,1426.3736263736262,,1,1,1768508597.5029602
1768508597510.7727,1424.9084249084249,,1,1,1768508597.5107727
1768508597518.5852,1420.5128205128203,,1,1,1768508597.5185852
1768508597526.3977,1417.5824175824175,,1,1,1768508597.5263977
1768508597534.2102,1413.9194139194135,,1,1,1768508597.5342102
1768508597542.0227,1408.058608058608,,1,1,1768508597.5420227
1768508597549.8352,1405.8608058608058,,1,1,1768508597.5498352
1768508597557.6477,1404.3956043956043,,1,1,1768508597.5576477
1768508597565.4602,1408.058608058608,,1,1,1768508597.5654602
1768508597573.2727,1412.4542124542124,,1,1,1768508597.5732727
1768508597581.0852,1415.3846153846152,,1,1,1768508597.5810852
1768508597588.8977,1416.8498168498168,,1,1,1768508597.5888977
1768508597596.7102,1416.8498168498168,,1,1,1768508597.5967102
1768508597604.5227,1419.047619047619,,1,1,1768508597.6045227
1768508597612.3352,1422.7106227106226,,1,1,1768508597.6123352
1768508597620.1477,1421.245421245421,,1,1,1768508597.6201477
1768508597627.9602,1415.3846153846152,,1,1,1768508597.6279602
1768508597635.7727,1406.5934065934066,,1,1,1768508597.6357727
1768508597643.5852,1400.0,,0,-1,1768508597.6435852
1768508597651.3977,1394.8717948717947,,0,-1,1768508597.6513977
1768508597659.2102,1389.0109890109889,,0,-1,1768508597.6592102
1768508597667.0227,1383.150183150183,,0,-1,1768508597.6670227
1768508597674.8352,1378.7545787545787,,0,-1,1768508597.6748352
1768508597682.6477,1377.2893772893772,,0,-1,1768508597.6826477
1768508597690.4602,1378.021978021978,,0,-1,1768508597.6904602
1768508597698.2727,1377.2893772893772,,0,-1,1768508597.6982727
1768508597706.0852,1374.3589743589744,,0,-1,1768508597.7060852
1768508597713.8977,1367.7655677655678,,0,-1,1768508597.7138977
1768508597721.7102,1364.8351648351647,,0,-1,1768508597.7217102
1768508597729.5227,1361.904761904762,,0,-1,1768508597.7295227
1768508597737.3352,1360.4395604395604,,0,-1,1768508597.7373352
1768508597745.1477,1360.4395604395604,,0,-1,1768508597.7451477
1768508597752.9602,1360.4395604395604,,0,-1,1768508597.7529602
1768508597760.7727,1362.6373626373625,,0,-1,1768508597.7607727
1768508597768.5852,1366.3003663003662,,0,-1,1768508597.7685852
1768508597776.3977,1369.9633699633698,,0,-1,1768508597.7763977
1768508597784.2102,1369.9633699633698,,0,-1,1768508597.7842102
1768508597792.0227,1365.5677655677655,,0,-1,1768508597.7920227
1768508597799.8352,1361.904761904762,,0,-1,1768508597.7998352
1768508597807.6477,1356.7765567765566,,0,-1,1768508597.8076477
1768508597815.4602,1353.113553113553,,0,-1,1768508597.8154602
1768508597823.2727,1348.7179487179487,,0,-1,1768508597.8232727
1768508597831.0852,1347.2527472527472,,0,-1,1768508597.8310852
1768508597838.8977,1348.7179487179487,,0,-1,1768508597.8388977
1768508597846.7102,1350.9157509157508,,0,-1,1768508597.8467102
1768508597854.5227,1353.8461538461538,,0,-1,1768508597.8545227
1768508597862.3352,1357.5091575091574,,0,-1,1768508597.8623352
1768508597870.1477,1358.241758241758,,0,-1,1768508597.8701477
1768508597877.9602,1356.7765567765566,,0,-1,1768508597.8779602
1768508597885.7727,1352.3809523809523,,0,-1,1768508597.8857727
1768508597893.5852,1345.054945054945,,0,-1,1768508597.8935852
1768508597901.3977,1339.194139194139,,0,-1,1768508597.9013977
1768508597909.2102,1334.7985347985348,,0,-1,1768508597.9092102
1768508597917.0227,1330.4029304029302,,0,-1,1768508597.9170227
1768508597924.8352,1326.739926739927,,0,-1,1768508597.9248352
1768508597932.6477,1322.3443223443223,,0,-1,1768508597.9326477
1768508597940.4602,1320.14652014652,,0,-1,1768508597.9404602
1768508597948.2727,1320.8791208791208,,0,-1,1768508597.9482727
1768508597956.0852,1320.14652014652,,0,-1,1768508597.9560852
1768508597963.8977,1316.4835164835165,,0,-1,1768508597.9638977
1768508597971.7102,1314.2857142857142,,0,-1,1768508597.9717102
1768508597979.5227,1312.087912087912,,0,-1,1768508597.9795227
1768508597987.3352,1315.018315018315,,0,-1,1768508597.9873352
1768508597995.1477,1315.018315018315,,0,-1,1768508597.9951477
1768508598002.9602,1312.8205128205127,,0,-1,1768508598.0029602
1768508598010.7727,1312.8205128205127,,0,-1,1768508598.0107727
1768508598018.5852,1312.087912087912,,0,-1,1768508598.0185852
1768508598026.3977,1319.4139194139193,,0,-1,1768508598.0263977
1768508598034.2102,1332.6007326007325,,0,-1,1768508598.0342102
1768508598042.0227,1348.7179487179487,,0,-1,1768508598.0420227
1768508598049.8352,1367.032967032967,,0,-1,1768508598.0498352
1768508598057.6477,1386.8131868131868,,0,-1,1768508598.0576477
1768508598065.4602,1402.9304029304028,,0,-1,1768508598.0654602
1768508598073.2727,1418.3150183150185,,0,-1,1768508598.0732727
1768508598081.0852,1430.7692307692307,,0,-1,1768508598.0810852
1768508598088.8977,1439.5604395604394,,0,-1,1768508598.0888977
1768508598096.7102,1447.6190476190477,,0,-1,1768508598.0967102
1768508598104.5227,1454.9450549450548,,0,-1,1768508598.1045227
1768508598112.3352,1459.3406593406592,,0,-1,1768508598.1123352
1768508598120.1477,1463.7362637362637,,0,-1,1768508598.1201477
1768508598127.9602,1466.6666666666663,,0,-1,1768508598.1279602
1768508598135.7727,1468.8644688644688,,0,-1,1768508598.1357727
1768508598143.5852,1471.7948717948716,,0,-1,1768508598.1435852
1768508598151.3977,1477.6556776556777,,0,-1,1768508598.1513977
1768508598159.2102,1488.6446886446886,,0,-1,1768508598.1592102
1768508598167.0227,1500.3663003663005,,0,-1,1768508598.1670227
1768508598174.8352,1509.1575091575091,,0,-1,1768508598.1748352
1768508598182.6477,1517.9487179487178,,0,-1,1768508598.1826477
1768508598190.4602,1524.5421245421244,,0,-1,1768508598.1904602
1768508598198.2727,1531.8681318681315,,0,-1,1768508598.1982727
1768508598206.0852,1538.4615384615383,,0,-1,1768508598.2060852
1768508598213.8977,1541.3919413919414,,0,-1,1768508598.2138977
1768508598221.7102,1542.124542124542,,0,-1,1768508598.2217102
1768508598229.5227,1541.3919413919414,,0,-1,1768508598.2295227
1768508598237.3352,1539.194139194139,,0,-1,1768508598.2373352
1768508598245.1477,1538.4615384615383,,0,-1,1768508598.2451477
1768508598252.9602,1537.7289377289376,,0,-1,1768508598.2529602
1768508598260.7727,1538.4615384615383,,0,-1,1768508598.2607727
1768508598268.5852,1538.4615384615383,,0,-1,1768508598.2685852
1768508598276.3977,1536.9963369963368,,0,-1,1768508598.2763977
1768508598284.2102,1535.5311355311355,,0,-1,1768508598.2842102
1768508598292.0227,1531.135531135531,,0,-1,1768508598.2920227
1768508598299.8352,1527.4725274725274,,0,-1,1768508598.2998352
1768508598307.6477,1525.2747252747251,,0,-1,1768508598.3076477
1768508598315.4602,1523.0769230769229,,0,-1,1768508598.3154602
1768508598323.2727,1522.3443223443223,,0,-1,1768508598.3232727
1768508598331.0852,1520.14652014652,,0,-1,1768508598.3310852
1768508598338.8977,1516.4835164835165,,0,-1,1768508598.3388977
1768508598346.7102,1514.2857142857142,,0,-1,1768508598.3467102
1768508598354.5227,1512.8205128205127,,0,-1,1768508598.3545227
1768508598362.3352,1512.087912087912,,0,-1,1768508598.3623352
1768508598370.1477,1510.6227106227104,,0,-1,1768508598.3701477
1768508598377.9602,1511.3553113553112,,0,-1,1768508598.3779602
1768508598385.7727,1515.018315018315,,0,-1,1768508598.3857727
1768508598393.5852,1517.216117216117,,0,-1,1768508598.3935852
1768508598401.3977,1521.6117216117216,,0,-1,1768508598.4013977
1768508598409.2102,1525.2747252747251,,0,-1,1768508598.4092102
1768508598417.0227,1531.135531135531,,0,-1,1768508598.4170227
1768508598424.8352,1539.194139194139,,0,-1,1768508598.4248352
1768508598432.6477,1545.054945054945,,0,-1,1768508598.4326477
1768508598440.4602,1549.4505494505493,,0,-1,1768508598.4404602
1768508598448.2727,1552.3809523809523,,0,-1,1768508598.4482727
1768508598456.0852,1550.9157509157508,,0,-1,1768508598.4560852
1768508598463.8977,1546.5201465201465,,0,-1,1768508598.4638977
1768508598471.7102,1538.4615384615383,,0,-1,1768508598.4717102
1768508598479.5227,1528.937728937729,,0,-1,1768508598.4795227
1768508598487.3352,1523.0769230769229,,0,-1,1768508598.4873352
1768508598495.1477,1515.7509157509155,,0,-1,1768508598.4951477
1768508598502.9602,1505.4945054945051,,0,-1,1768508598.5029602
1768508598510.7727,1493.040293040293,,0,-1,1768508598.5107727
1768508598518.5852,1479.120879120879,,0,-1,1768508598.5185852
1768508598526.3977,1469.5970695970695,,0,-1,1768508598.5263977
1768508598534.2102,1463.7362637362637,,0,-1,1768508598.5342102
1768508598542.0227,1460.07326007326,,0,-1,1768508598.5420227
1768508598549.8352,1459.3406593406592,,0,-1,1768508598.5498352
1768508598557.6477,1459.3406593406592,,0,-1,1768508598.5576477
1768508598565.4602,1460.805860805861,,0,-1,1768508598.5654602
1768508598573.2727,1459.3406593406592,,0,-1,1768508598.5732727
1768508598581.0852,1458.6080586080584,,0,-1,1768508598.5810852
1768508598588.8977,1458.6080586080584,,0,-1,1768508598.5888977
1768508598596.7102,1459.3406593406592,,0,-1,1768508598.5967102
1768508598604.5227,1460.07326007326,,0,-1,1768508598.6045227
1768508598612.3352,1459.3406593406592,,0,-1,1768508598.6123352
1768508598620.1477,1457.875457875458,,0,-1,1768508598.6201477
1768508598627.9602,1454.9450549450548,,0,-1,1768508598.6279602
1768508598635.7727,1454.212454212454,,0,-1,1768508598.6357727
1768508598643.5852,1451.2820512820513,,0,-1,1768508598.6435852
1768508598651.3977,1443.956043956044,,0,-1,1768508598.6513977
1768508598659.2102,1439.5604395604394,,0,-1,1768508598.6592102
1768508598667.0227,1432.9670329670328,,0,-1,1768508598.6670227
1768508598674.8352,1427.8388278388277,,0,-1,1768508598.6748352
1768508598682.6477,1426.3736263736262,,0,-1,1768508598.6826477
1768508598690.4602,1427.106227106227,,0,-1,1768508598.6904602
1768508598698.2727,1426.3736263736262,,0,-1,1768508598.6982727
1768508598706.0852,1421.9780219780218,,0,-1,1768508598.7060852
1768508598713.8977,1419.7802197802198,,0,-1,1768508598.7138977
1768508598721.7102,1418.3150183150185,,0,-1,1768508598.7217102
1768508598729.5227,1415.3846153846152,,0,-1,1768508598.7295227
1768508598737.3352,1411.7216117216117,,0,-1,1768508598.7373352
1768508598745.1782,1405.8608058608058,,0,-1,1768508598.7451782
1768508598752.9602,1397.069597069597,,0,-1,1768508598.7529602
1768508598760.7727,1387.5457875457876,,0,-1,1768508598.7607727
1768508598768.5852,1377.2893772893772,,0,-1,1768508598.7685852
1768508598776.3977,1368.4981684981683,,0,-1,1768508598.7763977
1768508598784.2102,1359.7069597069597,,0,-1,1768508598.7842102
1768508598792.0227,1356.043956043956,,0,-1,1768508598.7920227
1768508598799.8352,1358.974358974359,,0,-1,1768508598.7998352
1768508598807.6477,1364.102564102564,,0,-1,1768508598.8076477
1768508598815.4602,1369.9633699633698,,0,-1,1768508598.8154602
1768508598823.2727,1369.230769230769,,0,-1,1768508598.8232727
1768508598831.0852,1366.3003663003662,,0,-1,1768508598.8310852
1768508598838.8977,1363.3699633699632,,0,-1,1768508598.8388977
1768508598846.7102,1361.1721611721612,,0,-1,1768508598.8467102
1768508598854.5227,1358.974358974359,,0,-1,1768508598.8545227
1768508598862.3352,1356.043956043956,,0,-1,1768508598.8623352
1768508598870.1477,1353.8461538461538,,0,-1,1768508598.8701477
1768508598877.9602,1350.18315018315,,0,-1,1768508598.8779602
1768508598885.7727,1347.2527472527472,,0,-1,1768508598.8857727
1768508598893.5852,1345.7875457875457,,0,-1,1768508598.8935852
1768508598901.3977,1345.7875457875457,,0,-1,1768508598.9013977
1768508598909.2102,1346.5201465201465,,0,-1,1768508598.9092102
1768508598917.0227,1349.4505494505493,,0,-1,1768508598.9170227
1768508598924.8352,1351.6483516483515,,0,-1,1768508598.9248352
1768508598932.6477,1354.5787545787546,,0,-1,1768508598.9326477
1768508598940.4602,1359.7069597069597,,0,-1,1768508598.9404602
1768508598948.2727,1362.6373626373625,,0,-1,1768508598.9482727
1768508598956.0852,1361.904761904762,,0,-1,1768508598.9560852
1768508598963.8977,1361.904761904762,,0,-1,1768508598.9638977
1768508598971.7102,1363.3699633699632,,0,-1,1768508598.9717102
1768508598979.5227,1369.9633699633698,,0,-1,1768508598.9795227
1768508598987.3352,1380.2197802197802,,0,-1,1768508598.9873352
1768508598995.1477,1394.8717948717947,,0,-1,1768508598.9951477
1768508599002.9602,1411.7216117216117,,0,-1,1768508599.0029602
1768508599010.7727,1429.3040293040292,,0,-1,1768508599.0107727
1768508599018.5852,1446.153846153846,,0,-1,1768508599.0185852
1768508599026.3977,1460.805860805861,,0,-1,1768508599.0263977
1768508599034.2102,1472.5274725274724,,0,-1,1768508599.0342102
1768508599042.0227,1484.2490842490845,,0,-1,1768508599.0420227
1768508599049.8352,1495.970695970696,,0,-1,1768508599.0498352
1768508599057.6477,1506.9597069597069,,0,-1,1768508599.0576477
1768508599065.4602,1514.2857142857142,,0,-1,1768508599.0654602
1768508599073.2727,1519.4139194139193,,0,-1,1768508599.0732727
1768508599081.0852,1523.8095238095236,,0,-1,1768508599.0810852
1768508599088.8977,1526.007326007326,,0,-1,1768508599.0888977
1768508599096.7102,1526.739926739927,,0,-1,1768508599.0967102
1768508599104.5227,1525.2747252747251,,0,-1,1768508599.1045227
1768508599112.3352,1521.6117216117216,,0,-1,1768508599.1123352
1768508599120.1477,1513.5531135531137,,0,-1,1768508599.1201477
1768508599127.9602,1502.5641025641023,,0,-1,1768508599.1279602
1768508599135.7727,1494.5054945054944,,0,-1,1768508599.1357727
1768508599143.5852,1493.7728937728937,,0,-1,1768508599.1435852
1768508599151.3977,1493.7728937728937,,0,-1,1768508599.1513977
1768508599159.2102,1494.5054945054944,,0,-1,1768508599.1592102
1768508599167.0227,1493.7728937728937,,0,-1,1768508599.1670227
1768508599174.8352,1490.8424908424906,,0,-1,1768508599.1748352
1768508599182.6477,1485.7142857142856,,0,-1,1768508599.1826477
1768508599190.4602,1484.2490842490845,,0,-1,1768508599.1904602
1768508599198.2727,1484.2490842490845,,0,-1,1768508599.1982727
1768508599206.0852,1482.7838827838827,,0,-1,1768508599.2060852
1768508599213.8977,1480.5860805860805,,0,-1,1768508599.2138977
1768508599221.7102,1474.7252747252746,,0,-1,1768508599.2217102
1768508599229.5227,1471.062271062271,,0,-1,1768508599.2295227
1768508599237.3352,1468.131868131868,,0,-1,1768508599.2373352
1768508599245.1477,1466.6666666666663,,0,-1,1768508599.2451477
1768508599252.9602,1465.201465201465,,0,-1,1768508599.2529602
1768508599260.7727,1463.7362637362637,,0,-1,1768508599.2607727
1768508599268.5852,1461.5384615384614,,0,-1,1768508599.2685852
1768508599276.3977,1457.875457875458,,0,-1,1768508599.2763977
1768508599284.2102,1449.8168498168498,,0,-1,1768508599.2842102
1768508599292.0227,1439.5604395604394,,0,-1,1768508599.2920227
1768508599299.8352,1427.8388278388277,,0,-1,1768508599.2998352
1768508599307.6477,1421.245421245421,,0,-1,1768508599.3076477
1768508599315.4602,1413.9194139194135,,0,-1,1768508599.3154602
1768508599323.2727,1404.3956043956043,,0,-1,1768508599.3232727
1768508599331.0852,1394.8717948717947,,0,-1,1768508599.3310852
1768508599338.8977,1386.080586080586,,0,-1,1768508599.3388977
1768508599346.7102,1377.2893772893772,,0,-1,1768508599.3467102
1768508599354.5227,1367.7655677655678,,0,-1,1768508599.3545227
1768508599362.3352,1359.7069597069597,,0,-1,1768508599.3623352
1768508599370.1477,1353.113553113553,,0,-1,1768508599.3701477
1768508599377.9602,1347.985347985348,,0,-1,1768508599.3779602
1768508599385.7727,1347.2527472527472,,0,-1,1768508599.3857727
1768508599393.5852,1350.9157509157508,,0,-1,1768508599.3935852
1768508599401.3977,1354.5787545787546,,0,-1,1768508599.4013977
1768508599409.2102,1357.5091575091574,,0,-1,1768508599.4092102
1768508599417.0227,1359.7069597069597,,0,-1,1768508599.4170227
1768508599424.8352,1361.904761904762,,0,-1,1768508599.4248352
1768508599432.6477,1363.3699633699632,,0,-1,1768508599.4326477
1768508599440.4602,1367.7655677655678,,0,-1,1768508599.4404602
1768508599448.2727,1373.6263736263736,,0,-1,1768508599.4482727
1768508599456.0852,1378.021978021978,,0,-1,1768508599.4560852
1768508599463.8977,1380.2197802197802,,0,-1,1768508599.4638977
1768508599471.7102,1379.4871794871794,,0,-1,1768508599.4717102
1768508599479.5227,1375.8241758241757,,0,-1,1768508599.4795227
1768508599487.3352,1372.161172161172,,0,-1,1768508599.4873352
1768508599495.1477,1369.9633699633698,,0,-1,1768508599.4951477
1768508599502.9602,1368.4981684981683,,0,-1,1768508599.5029602
1768508599510.7727,1366.3003663003662,,0,-1,1768508599.5107727
1768508599518.5852,1366.3003663003662,,0,-1,1768508599.5185852
1768508599526.3977,1367.7655677655678,,0,-1,1768508599.5263977
1768508599534.2102,1369.9633699633698,,0,-1,1768508599.5342102
1768508599542.0227,1368.4981684981683,,0,-1,1768508599.5420227
1768508599549.8352,1361.1721611721612,,0,-1,1768508599.5498352
1768508599557.6477,1350.18315018315,,0,-1,1768508599.5576477
1768508599565.4602,1340.6593406593406,,0,-1,1768508599.5654602
1768508599573.2727,1334.065934065934,,0,-1,1768508599.5732727
1768508599581.0852,1331.135531135531,,0,-1,1768508599.5810852
1768508599588.8977,1330.4029304029302,,0,-1,1768508599.5888977
1768508599596.7102,1331.8681318681315,,0,-1,1768508599.5967102
1768508599604.5227,1335.5311355311355,,0,-1,1768508599.6045227
1768508599612.3352,1335.5311355311355,,0,-1,1768508599.6123352
1768508599620.1477,1339.194139194139,,0,-1,1768508599.6201477
1768508599627.9602,1341.3919413919414,,0,-1,1768508599.6279602
1768508599635.7727,1342.124542124542,,0,-1,1768508599.6357727
1768508599643.5852,1340.6593406593406,,0,-1,1768508599.6435852
1768508599651.3977,1339.194139194139,,0,-1,1768508599.6513977
1768508599659.2102,1339.194139194139,,0,-1,1768508599.6592102
1768508599667.0227,1337.7289377289376,,0,-1,1768508599.6670227
1768508599674.8352,1332.6007326007325,,0,-1,1768508599.6748352
1768508599682.6477,1328.2051282051282,,0,-1,1768508599.6826477
1768508599690.4602,1324.5421245421244,,0,-1,1768508599.6904602
1768508599698.2727,1321.6117216117216,,0,-1,1768508599.6982727
1768508599706.0852,1315.7509157509155,,0,-1,1768508599.7060852
1768508599713.8977,1309.89010989011,,0,-1,1768508599.7138977
1768508599721.7102,1304.7619047619046,,0,-1,1768508599.7217102
1768508599729.5227,1299.6336996336995,,0,-1,1768508599.7295227
1768508599737.3352,1293.040293040293,,0,-1,1768508599.7373352
1768508599745.1477,1288.6446886446886,,0,-1,1768508599.7451477
1768508599752.9602,1287.179487179487,,0,-1,1768508599.7529602
1768508599760.7727,1290.10989010989,,0,-1,1768508599.7607727
1768508599768.5852,1297.4358974358977,,0,-1,1768508599.7685852
1768508599776.3977,1303.2967032967033,,0,-1,1768508599.7763977
1768508599784.2102,1309.1575091575091,,0,-1,1768508599.7842102
1768508599792.0227,1311.3553113553112,,0,-1,1768508599.7920227
1768508599799.8352,1310.6227106227104,,0,-1,1768508599.7998352
1768508599807.6477,1309.1575091575091,,0,-1,1768508599.8076477
1768508599815.4602,1307.6923076923076,,0,-1,1768508599.8154602
1768508599823.2727,1305.4945054945051,,0,-1,1768508599.8232727
1768508599831.0852,1301.098901098901,,0,-1,1768508599.8310852
1768508599838.8977,1291.5750915750914,,0,-1,1768508599.8388977
1768508599846.7102,1280.5860805860805,,0,-1,1768508599.8467102
1768508599854.5227,1268.8644688644688,,0,-1,1768508599.8545227
1768508599862.3352,1257.875457875458,,0,-1,1768508599.8623352
1768508599870.1477,1249.8168498168498,,0,-1,1768508599.8701477
1768508599877.9602,1244.688644688645,,0,-1,1768508599.8779602
1768508599885.7727,1241.0256410256409,,0,-1,1768508599.8857727
1768508599893.5852,1236.6300366300366,,0,-1,1768508599.8935852
1768508599901.3977,1234.4322344322345,,0,-1,1768508599.9013977
1768508599909.2102,1235.164835164835,,0,-1,1768508599.9092102
1768508599917.0227,1235.8974358974358,,0,-1,1768508599.9170227
1768508599924.8352,1241.7582417582416,,0,-1,1768508599.9248352
1768508599932.6477,1250.5494505494505,,0,-1,1768508599.9326477
1768508599940.4602,1258.6080586080586,,0,-1,1768508599.9404602
1768508599948.2727,1264.4688644688645,,0,-1,1768508599.9482727
1768508599956.0852,1267.3992673992673,,0,-1,1768508599.9560852
1768508599963.8977,1265.9340659340658,,0,-1,1768508599.9638977
1768508599971.7102,1271.062271062271,,0,-1,1768508599.9717102
1768508599979.5227,1279.120879120879,,0,-1,1768508599.9795227
1768508599987.3352,1286.4468864468863,,0,-1,1768508599.9873352
1768508599995.1477,1297.4358974358977,,0,-1,1768508599.9951477
1768508600002.9602,1308.4249084249084,,0,-1,1768508600.0029602
1768508600010.7727,1316.4835164835165,,0,-1,1768508600.0107727
1768508600018.5852,1326.739926739927,,0,-1,1768508600.0185852
1768508600026.3977,1338.4615384615383,,0,-1,1768508600.0263977
1768508600034.2102,1352.3809523809523,,0,-1,1768508600.0342102
1768508600042.0227,1366.3003663003662,,0,-1,1768508600.0420227
1768508600049.8352,1377.2893772893772,,0,-1,1768508600.0498352
1768508600057.6477,1389.7435897435896,,0,-1,1768508600.0576477
1768508600065.4602,1401.4652014652013,,0,-1,1768508600.0654602
1768508600073.2727,1406.5934065934066,,0,-1,1768508600.0732727
1768508600081.0852,1409.5238095238094,,0,-1,1768508600.0810852
1768508600088.8977,1412.4542124542124,,0,-1,1768508600.0888977
1768508600096.7102,1415.3846153846152,,0,-1,1768508600.0967102
1768508600104.5227,1419.047619047619,,0,-1,1768508600.1045227
1768508600112.3352,1425.6410256410256,,0,-1,1768508600.1123352
1768508600120.1477,1432.9670329670328,,0,-1,1768508600.1201477
1768508600127.9602,1441.7582417582416,,0,-1,1768508600.1279602
1768508600135.7727,1450.5494505494505,,0,-1,1768508600.1357727
1768508600143.5852,1460.805860805861,,0,-1,1768508600.1435852
1768508600151.3977,1473.260073260073,,0,-1,1768508600.1513977
1768508600159.2102,1484.2490842490845,,0,-1,1768508600.1592102
1768508600167.0227,1492.3076923076922,,0,-1,1768508600.1670227
1768508600174.8352,1496.7032967032967,,0,-1,1768508600.1748352
1768508600182.6477,1500.3663003663005,,0,-1,1768508600.1826477
1768508600190.4602,1504.7619047619046,,0,-1,1768508600.1904602
1768508600198.2727,1507.6923076923076,,0,-1,1768508600.1982727
1768508600206.0852,1506.9597069597069,,0,-1,1768508600.2060852
1768508600213.8977,1502.5641025641023,,0,-1,1768508600.2138977
1768508600221.7102,1498.168498168498,,0,-1,1768508600.2217102
1768508600229.5227,1490.8424908424906,,0,-1,1768508600.2295227
1768508600237.3352,1481.3186813186812,,0,-1,1768508600.2373352
1768508600245.1782,1474.7252747252746,,0,-1,1768508600.2451782
1768508600252.9602,1465.201465201465,,0,-1,1768508600.2529602
1768508600260.7727,1453.479853479853,,0,-1,1768508600.2607727
1768508600268.5852,1441.7582417582416,,0,-1,1768508600.2685852
1768508600276.3977,1431.5018315018317,,0,-1,1768508600.2763977
1768508600284.2102,1423.4432234432234,,0,-1,1768508600.2842102
1768508600292.0227,1416.8498168498168,,0,-1,1768508600.2920227
1768508600299.8352,1410.2564102564102,,0,-1,1768508600.2998352
1768508600307.6477,1402.9304029304028,,0,-1,1768508600.3076477
1768508600315.4602,1397.069597069597,,0,-1,1768508600.3154602
1768508600323.2727,1391.941391941392,,0,-1,1768508600.3232727
1768508600331.0852,1386.080586080586,,0,-1,1768508600.3310852
1768508600338.8977,1383.150183150183,,0,-1,1768508600.3388977
1768508600346.7102,1384.6153846153843,,0,-1,1768508600.3467102
1768508600354.5227,1385.3479853479853,,0,-1,1768508600.3545227
1768508600362.3352,1382.4175824175825,,0,-1,1768508600.3623352
1768508600370.1477,1378.7545787545787,,0,-1,1768508600.3701477
1768508600377.9602,1375.8241758241757,,0,-1,1768508600.3779602
1768508600385.7727,1373.6263736263736,,0,-1,1768508600.3857727
1768508600393.5852,1372.161172161172,,0,-1,1768508600.3935852
1768508600401.3977,1372.161172161172,,0,-1,1768508600.4013977
1768508600409.2102,1372.8937728937728,,0,-1,1768508600.4092102
1768508600417.0227,1375.091575091575,,0,-1,1768508600.4170227
1768508600424.8352,1375.8241758241757,,0,-1,1768508600.4248352
1768508600432.6477,1372.161172161172,,0,-1,1768508600.4326477
1768508600440.4602,1364.102564102564,,0,-1,1768508600.4404602
1768508600448.2727,1356.043956043956,,0,-1,1768508600.4482727
1768508600456.0852,1350.18315018315,,0,-1,1768508600.4560852
1768508600463.8977,1345.054945054945,,0,-1,1768508600.4638977
1768508600471.7102,1340.6593406593406,,0,-1,1768508600.4717102
1768508600479.5227,1335.5311355311355,,0,-1,1768508600.4795227
1768508600487.3352,1328.2051282051282,,0,-1,1768508600.4873352
1768508600495.1477,1322.3443223443223,,0,-1,1768508600.4951477
1768508600502.9602,1321.6117216117216,,0,-1,1768508600.5029602
1768508600510.7727,1322.3443223443223,,0,-1,1768508600.5107727
1768508600518.5852,1320.8791208791208,,0,-1,1768508600.5185852
1768508600526.3977,1317.9487179487178,,0,-1,1768508600.5263977
1768508600534.2102,1315.7509157509155,,0,-1,1768508600.5342102
1768508600542.0227,1315.018315018315,,0,-1,1768508600.5420227
1768508600549.8352,1316.4835164835165,,0,-1,1768508600.5498352
1768508600557.6477,1317.9487179487178,,0,-1,1768508600.5576477
1768508600565.4602,1322.3443223443223,,0,-1,1768508600.5654602
1768508600573.2727,1328.2051282051282,,0,-1,1768508600.5732727
1768508600581.0852,1334.7985347985348,,0,-1,1768508600.5810852
1768508600588.8977,1340.6593406593406,,0,-1,1768508600.5888977
1768508600596.7102,1342.124542124542,,0,-1,1768508600.5967102
1768508600604.5227,1338.4615384615383,,0,-1,1768508600.6045227
1768508600612.3352,1333.3333333333333,,0,-1,1768508600.6123352
1768508600620.1477,1329.6703296703297,,0,-1,1768508600.6201477
1768508600627.9602,1328.937728937729,,0,-1,1768508600.6279602
1768508600635.7727,1326.007326007326,,0,-1,1768508600.6357727
1768508600643.5852,1322.3443223443223,,0,-1,1768508600.6435852
1768508600651.3977,1318.6813186813183,,0,-1,1768508600.6513977
1768508600659.2102,1314.2857142857142,,0,-1,1768508600.6592102
1768508600667.0227,1309.1575091575091,,0,-1,1768508600.6670227
1768508600674.8352,1305.4945054945051,,0,-1,1768508600.6748352
1768508600682.6477,1301.098901098901,,0,-1,1768508600.6826477
1768508600690.4602,1295.970695970696,,0,-1,1768508600.6904602
1768508600698.2727,1293.040293040293,,0,-1,1768508600.6982727
1768508600706.0852,1288.6446886446886,,0,-1,1768508600.7060852
1768508600713.8977,1282.7838827838827,,0,-1,1768508600.7138977
1768508600721.7102,1277.6556776556777,,0,-1,1768508600.7217102
1768508600729.5227,1276.923076923077,,0,-1,1768508600.7295227
1768508600737.3352,1277.6556776556777,,0,-1,1768508600.7373352
1768508600745.1477,1276.923076923077,,0,-1,1768508600.7451477
1768508600752.9602,1274.7252747252746,,0,-1,1768508600.7529602
1768508600760.7727,1271.062271062271,,0,-1,1768508600.7607727
1768508600768.5852,1267.3992673992673,,0,-1,1768508600.7685852
1768508600776.3977,1266.6666666666663,,0,-1,1768508600.7763977
1768508600784.2102,1265.9340659340658,,0,-1,1768508600.7842102
1768508600792.0227,1268.8644688644688,,0,-1,1768508600.7920227
1768508600799.8352,1275.4578754578754,,0,-1,1768508600.7998352
1768508600807.6477,1285.7142857142856,,0,-1,1768508600.8076477
1768508600815.4602,1296.7032967032967,,0,-1,1768508600.8154602
1768508600823.2727,1306.9597069597069,,0,-1,1768508600.8232727
1768508600831.0852,1314.2857142857142,,0,-1,1768508600.8310852
1768508600838.8977,1316.4835164835165,,0,-1,1768508600.8388977
1768508600846.7102,1315.018315018315,,0,-1,1768508600.8467102
1768508600854.5227,1310.6227106227104,,0,-1,1768508600.8545227
1768508600862.3352,1303.2967032967033,,0,-1,1768508600.8623352
1768508600870.1477,1293.040293040293,,0,-1,1768508600.8701477
1768508600877.9602,1280.5860805860805,,0,-1,1768508600.8779602
1768508600885.7727,1267.3992673992673,,0,-1,1768508600.8857727
1768508600893.5852,1257.875457875458,,0,-1,1768508600.8935852
1768508600901.3977,1253.479853479853,,0,-1,1768508600.9013977
1768508600909.2102,1252.014652014652,,0,-1,1768508600.9092102
1768508600917.0227,1252.014652014652,,0,-1,1768508600.9170227
1768508600924.8352,1253.479853479853,,0,-1,1768508600.9248352
1768508600932.6477,1255.6776556776556,,0,-1,1768508600.9326477
1768508600940.4602,1261.5384615384614,,0,-1,1768508600.9404602
1768508600948.2727,1270.3296703296703,,0,-1,1768508600.9482727
1768508600956.0852,1284.9816849816848,,0,-1,1768508600.9560852
1768508600963.8977,1301.8315018315018,,0,-1,1768508600.9638977
1768508600971.7102,1319.4139194139193,,0,-1,1768508600.9717102
1768508600979.5227,1334.7985347985348,,0,-1,1768508600.9795227
1768508600987.3352,1348.7179487179487,,0,-1,1768508600.9873352
1768508600995.1477,1361.1721611721612,,0,-1,1768508600.9951477
1768508601002.9602,1372.8937728937728,,0,-1,1768508601.0029602
1768508601010.7727,1382.4175824175825,,0,-1,1768508601.0107727
1768508601018.5852,1391.941391941392,,0,-1,1768508601.0185852
1768508601026.3977,1402.197802197802,,0,-1,1768508601.0263977
1768508601034.2102,1411.7216117216117,,0,-1,1768508601.0342102
1768508601042.0227,1419.047619047619,,0,-1,1768508601.0420227
1768508601049.8352,1424.175824175824,,0,-1,1768508601.0498352
1768508601057.6477,1427.8388278388277,,0,-1,1768508601.0576477
1768508601065.4602,1433.6996336996335,,0,-1,1768508601.0654602
1768508601073.2727,1441.0256410256409,,0,-1,1768508601.0732727
1768508601081.0852,1448.3516483516482,,0,-1,1768508601.0810852
1768508601088.8977,1455.6776556776556,,0,-1,1768508601.0888977
1768508601096.7102,1460.805860805861,,0,-1,1768508601.0967102
1768508601104.5227,1464.4688644688645,,0,-1,1768508601.1045227
1768508601112.3352,1463.7362637362637,,0,-1,1768508601.1123352
1768508601120.1477,1459.3406593406592,,0,-1,1768508601.1201477
1768508601127.9602,1457.142857142857,,0,-1,1768508601.1279602
1768508601135.7727,1454.9450549450548,,0,-1,1768508601.1357727
1768508601143.5852,1452.014652014652,,0,-1,1768508601.1435852
1768508601151.3977,1449.084249084249,,0,-1,1768508601.1513977
1768508601159.2102,1445.4212454212454,,0,-1,1768508601.1592102
1768508601167.0227,1442.4908424908424,,0,-1,1768508601.1670227
1768508601174.8352,1434.4322344322345,,0,-1,1768508601.1748352
1768508601182.6477,1423.4432234432234,,0,-1,1768508601.1826477
1768508601190.4602,1410.989010989011,,0,-1,1768508601.1904602
1768508601198.2727,1403.6630036630036,,0,-1,1768508601.1982727
1768508601206.0852,1393.4065934065934,,0,-1,1768508601.2060852
1768508601213.8977,1386.8131868131868,,0,-1,1768508601.2138977
1768508601221.7102,1382.4175824175825,,0,-1,1768508601.2217102
1768508601229.5227,1381.6849816849815,,0,-1,1768508601.2295227
1768508601237.3352,1380.2197802197802,,0,-1,1768508601.2373352
1768508601245.1477,1378.021978021978,,0,-1,1768508601.2451477
1768508601252.9602,1379.4871794871794,,0,-1,1768508601.2529602
1768508601260.7727,1383.150183150183,,0,-1,1768508601.2607727
1768508601268.5852,1386.080586080586,,0,-1,1768508601.2685852
1768508601276.3977,1386.080586080586,,0,-1,1768508601.2763977
1768508601284.2102,1383.150183150183,,0,-1,1768508601.2842102
1768508601292.0227,1380.952380952381,,0,-1,1768508601.2920227
1768508601299.8352,1378.7545787545787,,0,-1,1768508601.2998352
1768508601307.6477,1378.021978021978,,0,-1,1768508601.3076477
1768508601315.4602,1375.091575091575,,0,-1,1768508601.3154602
1768508601323.2727,1372.8937728937728,,0,-1,1768508601.3232727
1768508601331.0852,1373.6263736263736,,0,-1,1768508601.3310852
1768508601338.8977,1374.3589743589744,,0,-1,1768508601.3388977
1768508601346.7102,1371.428571428571,,0,-1,1768508601.3467102
1768508601354.5227,1366.3003663003662,,0,-1,1768508601.3545227
1768508601362.3352,1364.8351648351647,,0,-1,1768508601.3623352
1768508601370.1477,1360.4395604395604,,0,-1,1768508601.3701477
1768508601377.9602,1351.6483516483515,,0,-1,1768508601.3779602
1768508601385.7727,1344.3223443223442,,0,-1,1768508601.3857727
1768508601393.5852,1336.9963369963368,,0,-1,1768508601.3935852
1768508601401.3977,1328.2051282051282,,0,-1,1768508601.4013977
1768508601409.2102,1317.9487179487178,,0,-1,1768508601.4092102
1768508601417.0227,1309.1575091575091,,0,-1,1768508601.4170227
1768508601424.8352,1306.9597069597069,,0,-1,1768508601.4248352
1768508601432.6477,1310.6227106227104,,0,-1,1768508601.4326477
1768508601440.4602,1318.6813186813183,,1,2,1768508601.4404602
1768508601448.2727,1326.739926739927,,1,2,1768508601.4482727
1768508601456.0852,1332.6007326007325,,1,2,1768508601.4560852
1768508601463.8977,1334.7985347985348,,1,2,1768508601.4638977
1768508601471.7102,1339.194139194139,,1,2,1768508601.4717102
1768508601479.5227,1339.194139194139,,1,2,1768508601.4795227
1768508601487.3352,1337.7289377289376,,1,2,1768508601.4873352
1768508601495.1477,1334.065934065934,,1,2,1768508601.4951477
1768508601502.9602,1332.6007326007325,,1,2,1768508601.5029602
1768508601510.7727,1329.6703296703297,,1,2,1768508601.5107727
1768508601518.5852,1324.5421245421244,,1,2,1768508601.5185852
1768508601526.3977,1315.7509157509155,,1,2,1768508601.5263977
1768508601534.2102,1309.1575091575091,,1,2,1768508601.5342102
1768508601542.0227,1304.7619047619046,,1,2,1768508601.5420227
1768508601549.8352,1303.2967032967033,,1,2,1768508601.5498352
1768508601557.6477,1304.7619047619046,,1,2,1768508601.5576477
1768508601565.4602,1306.227106227106,,1,2,1768508601.5654602
1768508601573.2727,1305.4945054945051,,1,2,1768508601.5732727
1768508601581.0852,1301.8315018315018,,1,2,1768508601.5810852
1768508601588.8977,1299.6336996336995,,1,2,1768508601.5888977
1768508601596.7102,1297.4358974358977,,1,2,1768508601.5967102
1768508601604.5227,1293.040293040293,,1,2,1768508601.6045227
1768508601612.3352,1287.179487179487,,1,2,1768508601.6123352
1768508601620.1477,1283.5164835164835,,1,2,1768508601.6201477
1768508601627.9602,1282.7838827838827,,1,2,1768508601.6279602
1768508601635.7727,1278.3882783882782,,1,2,1768508601.6357727
1768508601643.5852,1275.4578754578754,,1,2,1768508601.6435852
1768508601651.3977,1271.062271062271,,1,2,1768508601.6513977
1768508601659.2102,1267.3992673992673,,1,2,1768508601.6592102
1768508601667.0227,1271.7948717948716,,1,2,1768508601.6670227
1768508601674.8352,1276.190476190476,,1,2,1768508601.6748352
1768508601682.6477,1278.3882783882782,,1,2,1768508601.6826477
1768508601690.4602,1279.8534798534797,,1,2,1768508601.6904602
1768508601698.2727,1282.7838827838827,,1,2,1768508601.6982727
1768508601706.0852,1284.9816849816848,,1,2,1768508601.7060852
1768508601713.8977,1283.5164835164835,,1,2,1768508601.7138977
1768508601721.7102,1282.051282051282,,1,2,1768508601.7217102
1768508601729.5227,1279.120879120879,,1,2,1768508601.7295227
1768508601737.3352,1275.4578754578754,,1,2,1768508601.7373352
1768508601745.1477,1270.3296703296703,,1,2,1768508601.7451477
1768508601752.9602,1264.4688644688645,,1,2,1768508601.7529602
1768508601760.7727,1259.3406593406592,,1,2,1768508601.7607727
1768508601768.5852,1256.4102564102564,,1,2,1768508601.7685852
1768508601776.3977,1253.479853479853,,1,2,1768508601.7763977
1768508601784.2102,1252.7472527472526,,1,2,1768508601.7842102
1768508601792.0227,1249.084249084249,,1,2,1768508601.7920227
1768508601799.8352,1249.8168498168498,,1,2,1768508601.7998352
1768508601807.6477,1254.9450549450548,,1,2,1768508601.8076477
1768508601815.4602,1257.142857142857,,1,2,1768508601.8154602
1768508601823.2727,1256.4102564102564,,1,2,1768508601.8232727
1768508601831.0852,1260.07326007326,,1,2,1768508601.8310852
1768508601838.8977,1268.131868131868,,1,2,1768508601.8388977
1768508601846.7102,1274.7252747252746,,1,2,1768508601.8467102
1768508601854.5227,1279.120879120879,,1,2,1768508601.8545227
1768508601862.3352,1282.7838827838827,,1,2,1768508601.8623352
1768508601870.1477,1285.7142857142856,,1,2,1768508601.8701477
1768508601877.9602,1284.9816849816848,,1,2,1768508601.8779602
1768508601885.7727,1285.7142857142856,,1,2,1768508601.8857727
1768508601893.5852,1289.3772893772891,,1,2,1768508601.8935852
1768508601901.3977,1293.040293040293,,1,2,1768508601.9013977
1768508601909.2102,1298.168498168498,,1,2,1768508601.9092102
1768508601917.0227,1312.087912087912,,1,2,1768508601.9170227
1768508601924.8352,1323.076923076923,,1,2,1768508601.9248352
1768508601932.6477,1342.857142857143,,1,2,1768508601.9326477
1768508601940.4602,1358.974358974359,,1,2,1768508601.9404602
1768508601948.2727,1373.6263736263736,,1,2,1768508601.9482727
1768508601956.0852,1390.4761904761904,,1,2,1768508601.9560852
1768508601963.8977,1401.4652014652013,,1,2,1768508601.9638977
1768508601971.7102,1409.5238095238094,,1,2,1768508601.9717102
1768508601979.5227,1417.5824175824175,,1,2,1768508601.9795227
1768508601987.3352,1427.8388278388277,,1,2,1768508601.9873352
1768508601995.1477,1433.6996336996335,,1,2,1768508601.9951477
1768508602002.9602,1440.29304029304,,1,2,1768508602.0029602
1768508602010.7727,1438.8278388278388,,1,2,1768508602.0107727
1768508602018.5852,1437.362637362637,,1,2,1768508602.0185852
1768508602026.3977,1432.9670329670328,,1,2,1768508602.0263977
1768508602034.2102,1430.03663003663,,1,2,1768508602.0342102
