Shimmer_6815_Timestamp_Unix_CAL,Shimmer_6815_PPG_A13_CAL,Unnamed: 2,inhale,inhale_id,epoch_sec
1768795068847.046,85.71428571428571,,0,-1,1768795068.847046
1768795068854.8584,208.0586080586081,,0,-1,1768795068.8548584
1768795068862.671,347.2527472527472,,0,-1,1768795068.862671
1768795068870.4834,493.7728937728937,,0,-1,1768795068.8704834
1768795068878.296,632.9670329670329,,0,-1,1768795068.878296
1768795068886.1084,758.2417582417581,,0,-1,1768795068.8861084
1768795068893.921,870.3296703296703,,0,-1,1768795068.893921
1768795068901.7334,969.2307692307692,,0,-1,1768795068.9017334
1768795068909.546,1055.6776556776556,,0,-1,1768795068.909546
1768795068917.3584,1129.6703296703297,,0,-1,1768795068.9173584
1768795068925.171,1191.941391941392,,0,-1,1768795068.925171
1768795068932.9834,1243.956043956044,,0,-1,1768795068.9329834
1768795068940.796,1289.3772893772891,,0,-1,1768795068.940796
1768795068948.6084,1326.739926739927,,0,-1,1768795068.9486084
1768795068956.421,1353.8461538461538,,0,-1,1768795068.956421
1768795068964.2334,1369.9633699633698,,0,-1,1768795068.9642334
1768795068972.046,1378.7545787545787,,0,-1,1768795068.972046
1768795068979.8584,1380.952380952381,,0,-1,1768795068.9798584
1768795068987.671,1384.6153846153843,,0,-1,1768795068.987671
1768795068995.4834,1391.941391941392,,0,-1,1768795068.9954834
1768795069003.296,1394.139194139194,,0,-1,1768795069.003296
1768795069011.1084,1393.4065934065934,,0,-1,1768795069.0111084
1768795069018.921,1391.2087912087911,,0,-1,1768795069.018921
1768795069026.7334,1386.8131868131868,,0,-1,1768795069.0267334
1768795069034.546,1379.4871794871794,,0,-1,1768795069.034546
1768795069042.3584,1373.6263736263736,,0,-1,1768795069.0423584
1768795069050.171,1367.7655677655678,,0,-1,1768795069.050171
1768795069057.9834,1363.3699633699632,,0,-1,1768795069.0579834
1768795069065.796,1356.7765567765566,,0,-1,1768795069.065796
1768795069073.6084,1345.7875457875457,,0,-1,1768795069.0736084
1768795069081.421,1334.7985347985348,,0,-1,1768795069.081421
1768795069089.2334,1324.5421245421244,,0,-1,1768795069.0892334
1768795069097.046,1317.216117216117,,0,-1,1768795069.097046
1768795069104.8584,1313.5531135531137,,0,-1,1768795069.1048584
1768795069112.671,1310.6227106227104,,0,-1,1768795069.112671
1768795069120.4834,1311.3553113553112,,0,-1,1768795069.1204834
1768795069128.296,1310.6227106227104,,0,-1,1768795069.128296
1768795069136.1084,1305.4945054945051,,0,-1,1768795069.1361084
1768795069143.921,1302.5641025641023,,0,-1,1768795069.143921
1768795069151.7334,1301.8315018315018,,0,-1,1768795069.1517334
1768795069159.546,1303.2967032967033,,0,-1,1768795069.159546
1768795069167.3584,1302.5641025641023,,0,-1,1768795069.1673584
1768795069175.171,1303.2967032967033,,0,-1,1768795069.175171
1768795069182.9834,1304.0293040293038,,0,-1,1768795069.1829834
1768795069190.796,1303.2967032967033,,0,-1,1768795069.190796
1768795069198.6084,1304.7619047619046,,0,-1,1768795069.1986084
1768795069206.421,1301.8315018315018,,0,-1,1768795069.206421
1768795069214.2334,1301.098901098901,,0,-1,1768795069.2142334
1768795069222.046,1297.4358974358977,,0,-1,1768795069.222046
1768795069229.8584,1290.8424908424909,,0,-1,1768795069.2298584
1768795069237.671,1281.3186813186812,,0,-1,1768795069.237671
1768795069245.4834,1273.260073260073,,0,-1,1768795069.2454834
1768795069253.296,1269.5970695970695,,0,-1,1768795069.253296
1768795069261.1084,1268.131868131868,,0,-1,1768795069.2611084
1768795069268.921,1268.131868131868,,0,-1,1768795069.268921
1768795069276.7334,1268.131868131868,,0,-1,1768795069.2767334
1768795069284.546,1265.2014652014652,,0,-1,1768795069.284546
1768795069292.3584,1261.5384615384614,,0,-1,1768795069.2923584
1768795069300.171,1255.6776556776556,,0,-1,1768795069.300171
1768795069307.9834,1245.4212454212454,,0,-1,1768795069.3079834
1768795069315.796,1238.095238095238,,0,-1,1768795069.315796
1768795069323.6084,1231.5018315018317,,0,-1,1768795069.3236084
1768795069331.421,1227.106227106227,,0,-1,1768795069.331421
1768795069339.2334,1229.3040293040292,,0,-1,1768795069.3392334
1768795069347.046,1232.2344322344322,,0,-1,1768795069.347046
1768795069354.8584,1235.164835164835,,0,-1,1768795069.3548584
1768795069362.671,1235.8974358974358,,0,-1,1768795069.362671
1768795069370.4834,1232.967032967033,,0,-1,1768795069.3704834
1768795069378.296,1229.3040293040292,,0,-1,1768795069.378296
1768795069386.1084,1230.03663003663,,0,-1,1768795069.3861084
1768795069393.921,1233.6996336996335,,0,-1,1768795069.393921
1768795069401.7334,1242.4908424908424,,0,-1,1768795069.4017334
1768795069409.546,1252.7472527472526,,0,-1,1768795069.409546
1768795069417.3584,1269.5970695970695,,0,-1,1768795069.4173584
1768795069425.171,1291.5750915750914,,0,-1,1768795069.425171
1768795069432.9834,1320.14652014652,,0,-1,1768795069.4329834
1768795069440.796,1353.113553113553,,0,-1,1768795069.440796
1768795069448.6084,1389.7435897435896,,0,-1,1768795069.4486084
1768795069456.421,1425.6410256410256,,0,-1,1768795069.456421
1768795069464.2334,1461.5384615384614,,0,-1,1768795069.4642334
1768795069472.046,1490.8424908424906,,0,-1,1768795069.472046
1768795069479.8584,1513.5531135531137,,0,-1,1768795069.4798584
1768795069487.671,1533.3333333333333,,0,-1,1768795069.487671
1768795069495.4834,1551.6483516483515,,0,-1,1768795069.4954834
1768795069503.296,1567.7655677655678,,0,-1,1768795069.503296
1768795069511.1084,1580.2197802197802,,0,-1,1768795069.5111084
1768795069518.921,1589.7435897435896,,0,-1,1768795069.518921
1768795069526.7334,1598.5347985347985,,0,-1,1768795069.5267334
1768795069534.546,1607.3260073260071,,0,-1,1768795069.534546
1768795069542.3584,1615.3846153846152,,0,-1,1768795069.5423584
1768795069550.171,1619.7802197802196,,0,-1,1768795069.550171
1768795069557.9834,1621.245421245421,,0,-1,1768795069.5579834
1768795069565.796,1622.7106227106226,,0,-1,1768795069.565796
1768795069573.6084,1624.175824175824,,0,-1,1768795069.5736084
1768795069581.421,1625.6410256410256,,0,-1,1768795069.581421
1768795069589.2334,1625.6410256410256,,0,-1,1768795069.5892334
1768795069597.046,1621.9780219780218,,0,-1,1768795069.597046
1768795069604.8584,1619.047619047619,,0,-1,1768795069.6048584
1768795069612.671,1616.117216117216,,0,-1,1768795069.612671
1768795069620.4834,1608.7912087912086,,0,-1,1768795069.6204834
1768795069628.296,1600.0,,0,-1,1768795069.628296
1768795069636.1084,1591.941391941392,,0,-1,1768795069.6361084
1768795069643.921,1582.4175824175825,,0,-1,1768795069.643921
1768795069651.7334,1572.161172161172,,0,-1,1768795069.6517334
1768795069659.546,1562.6373626373625,,0,-1,1768795069.659546
1768795069667.3584,1548.7179487179485,,0,-1,1768795069.6673584
1768795069675.171,1534.7985347985348,,0,-1,1768795069.675171
1768795069682.9834,1521.6117216117216,,0,-1,1768795069.6829834
1768795069690.796,1509.1575091575091,,0,-1,1768795069.690796
1768795069698.6084,1498.9010989010987,,0,-1,1768795069.6986084
1768795069706.421,1490.10989010989,,0,-1,1768795069.706421
1768795069714.2334,1484.2490842490845,,0,-1,1768795069.7142334
1768795069722.046,1479.8534798534797,,0,-1,1768795069.722046
1768795069729.8584,1475.4578754578754,,0,-1,1768795069.7298584
1768795069737.671,1471.062271062271,,0,-1,1768795069.737671
1768795069745.4834,1466.6666666666663,,0,-1,1768795069.7454834
1768795069753.296,1463.7362637362637,,0,-1,1768795069.753296
1768795069761.1084,1462.2710622710622,,0,-1,1768795069.7611084
1768795069768.921,1460.805860805861,,0,-1,1768795069.768921
1768795069776.7334,1460.805860805861,,0,-1,1768795069.7767334
1768795069784.546,1460.805860805861,,0,-1,1768795069.784546
1768795069792.3584,1463.7362637362637,,0,-1,1768795069.7923584
1768795069800.171,1466.6666666666663,,0,-1,1768795069.800171
1768795069807.9834,1471.7948717948716,,0,-1,1768795069.8079834
1768795069815.796,1476.190476190476,,0,-1,1768795069.815796
1768795069823.6084,1483.5164835164835,,0,-1,1768795069.8236084
1768795069831.421,1482.051282051282,,0,-1,1768795069.831421
1768795069839.2334,1477.6556776556777,,0,-1,1768795069.8392334
1768795069847.046,1471.7948717948716,,0,-1,1768795069.847046
1768795069854.8584,1467.3992673992673,,0,-1,1768795069.8548584
1768795069862.671,1460.07326007326,,0,-1,1768795069.862671
1768795069870.4834,1451.2820512820513,,0,-1,1768795069.8704834
1768795069878.296,1441.0256410256409,,0,-1,1768795069.878296
1768795069886.1084,1431.5018315018317,,0,-1,1768795069.8861084
1768795069893.921,1419.7802197802198,,0,-1,1768795069.893921
1768795069901.7334,1407.3260073260071,,0,-1,1768795069.9017334
1768795069909.546,1391.941391941392,,0,-1,1768795069.909546
1768795069917.3584,1379.4871794871794,,0,-1,1768795069.9173584
1768795069925.171,1366.3003663003662,,0,-1,1768795069.925171
1768795069932.9834,1355.311355311355,,0,-1,1768795069.9329834
1768795069940.796,1346.5201465201465,,0,-1,1768795069.940796
1768795069948.6084,1336.263736263736,,0,-1,1768795069.9486084
1768795069956.421,1327.4725274725274,,0,-1,1768795069.956421
1768795069964.2334,1320.8791208791208,,0,-1,1768795069.9642334
1768795069972.046,1317.9487179487178,,0,-1,1768795069.972046
1768795069979.8584,1312.8205128205127,,0,-1,1768795069.9798584
1768795069987.671,1306.227106227106,,0,-1,1768795069.987671
1768795069995.4834,1298.9010989010987,,0,-1,1768795069.9954834
1768795070003.296,1290.8424908424909,,0,-1,1768795070.003296
1768795070011.1084,1284.2490842490845,,0,-1,1768795070.0111084
1768795070018.921,1281.3186813186812,,0,-1,1768795070.018921
1768795070026.7334,1283.5164835164835,,0,-1,1768795070.0267334
1768795070034.546,1287.179487179487,,0,-1,1768795070.034546
1768795070042.3584,1290.8424908424909,,0,-1,1768795070.0423584
1768795070050.171,1290.10989010989,,0,-1,1768795070.050171
1768795070057.9834,1287.9120879120878,,0,-1,1768795070.0579834
1768795070065.796,1285.7142857142856,,0,-1,1768795070.065796
1768795070073.6084,1282.7838827838827,,0,-1,1768795070.0736084
1768795070081.421,1279.120879120879,,0,-1,1768795070.081421
1768795070089.2334,1275.4578754578754,,0,-1,1768795070.0892334
1768795070097.046,1270.3296703296703,,0,-1,1768795070.097046
1768795070104.8584,1265.9340659340658,,0,-1,1768795070.1048584
1768795070112.671,1263.7362637362637,,0,-1,1768795070.112671
1768795070120.4834,1263.7362637362637,,0,-1,1768795070.1204834
1768795070128.296,1262.2710622710622,,0,-1,1768795070.128296
1768795070136.1084,1259.3406593406592,,0,-1,1768795070.1361084
1768795070143.921,1254.9450549450548,,0,-1,1768795070.143921
1768795070151.7334,1251.2820512820513,,0,-1,1768795070.1517334
1768795070159.546,1247.6190476190477,,0,-1,1768795070.159546
1768795070167.3584,1243.956043956044,,0,-1,1768795070.1673584
1768795070175.171,1238.095238095238,,0,-1,1768795070.175171
1768795070182.9834,1231.5018315018317,,0,-1,1768795070.1829834
1768795070190.796,1230.7692307692307,,0,-1,1768795070.190796
1768795070198.6084,1237.362637362637,,0,-1,1768795070.1986084
1768795070206.421,1251.2820512820513,,0,-1,1768795070.206421
1768795070214.2334,1268.8644688644688,,0,-1,1768795070.2142334
1768795070222.046,1289.3772893772891,,0,-1,1768795070.222046
1768795070229.8584,1311.3553113553112,,0,-1,1768795070.2298584
1768795070237.671,1334.065934065934,,0,-1,1768795070.237671
1768795070245.4834,1357.5091575091574,,0,-1,1768795070.2454834
1768795070253.296,1383.150183150183,,0,-1,1768795070.253296
1768795070261.1084,1408.7912087912086,,0,-1,1768795070.2611084
1768795070268.921,1436.6300366300366,,0,-1,1768795070.268921
1768795070276.7334,1465.9340659340658,,0,-1,1768795070.2767334
1768795070284.546,1495.970695970696,,0,-1,1768795070.284546
1768795070292.3584,1526.007326007326,,0,-1,1768795070.2923584
1768795070300.171,1551.6483516483515,,0,-1,1768795070.300171
1768795070307.9834,1570.6959706959706,,0,-1,1768795070.3079834
1768795070315.796,1586.8131868131868,,0,-1,1768795070.315796
1768795070323.6084,1600.7326007326003,,0,-1,1768795070.3236084
1768795070331.421,1611.7216117216117,,0,-1,1768795070.331421
1768795070339.2334,1621.9780219780218,,0,-1,1768795070.3392334
1768795070347.046,1631.5018315018317,,0,-1,1768795070.347046
1768795070354.8584,1641.7582417582416,,0,-1,1768795070.3548584
1768795070362.671,1648.3516483516482,,0,-1,1768795070.362671
1768795070370.4834,1654.9450549450548,,0,-1,1768795070.3704834
1768795070378.296,1657.142857142857,,0,-1,1768795070.378296
1768795070386.1084,1660.07326007326,,0,-1,1768795070.3861084
1768795070393.921,1665.9340659340658,,0,-1,1768795070.393921
1768795070401.7334,1673.992673992674,,0,-1,1768795070.4017334
1768795070409.546,1682.7838827838827,,0,-1,1768795070.409546
1768795070417.3584,1690.8424908424906,,0,-1,1768795070.4173584
1768795070425.171,1694.5054945054944,,0,-1,1768795070.425171
1768795070432.9834,1693.7728937728937,,0,-1,1768795070.4329834
1768795070440.796,1693.7728937728937,,0,-1,1768795070.440796
1768795070448.6084,1692.3076923076922,,0,-1,1768795070.4486084
1768795070456.421,1684.9816849816848,,0,-1,1768795070.456421
1768795070464.2334,1675.4578754578754,,0,-1,1768795070.4642334
1768795070472.046,1663.003663003663,,0,-1,1768795070.472046
1768795070479.8584,1651.2820512820513,,0,-1,1768795070.4798584
1768795070487.671,1637.362637362637,,0,-1,1768795070.487671
1768795070495.4834,1622.7106227106226,,0,-1,1768795070.4954834
1768795070503.296,1608.7912087912086,,0,-1,1768795070.503296
1768795070511.1084,1596.3369963369962,,0,-1,1768795070.5111084
1768795070518.921,1575.8241758241757,,0,-1,1768795070.518921
1768795070526.7334,1561.1721611721612,,0,-1,1768795070.5267334
1768795070534.546,1554.5787545787546,,0,-1,1768795070.534546
1768795070542.3584,1549.4505494505493,,0,-1,1768795070.5423584
1768795070550.171,1542.124542124542,,0,-1,1768795070.550171
1768795070557.9834,1532.6007326007325,,0,-1,1768795070.5579834
1768795070565.796,1528.937728937729,,0,-1,1768795070.565796
1768795070573.6084,1526.007326007326,,0,-1,1768795070.5736084
1768795070581.421,1522.3443223443223,,0,-1,1768795070.581421
1768795070589.2334,1520.8791208791208,,0,-1,1768795070.5892334
1768795070597.046,1516.4835164835165,,0,-1,1768795070.597046
1768795070604.8584,1510.6227106227104,,0,-1,1768795070.6048584
1768795070612.671,1509.1575091575091,,0,-1,1768795070.612671
1768795070620.4834,1505.4945054945051,,0,-1,1768795070.6204834
1768795070628.296,1501.8315018315018,,0,-1,1768795070.628296
1768795070636.1084,1501.098901098901,,0,-1,1768795070.6361084
1768795070643.921,1501.8315018315018,,0,-1,1768795070.643921
1768795070651.7334,1498.168498168498,,0,-1,1768795070.6517334
1768795070659.546,1490.8424908424906,,0,-1,1768795070.659546
1768795070667.3584,1483.5164835164835,,0,-1,1768795070.6673584
1768795070675.171,1478.3882783882782,,0,-1,1768795070.675171
1768795070682.9834,1470.3296703296703,,0,-1,1768795070.6829834
1768795070690.796,1462.2710622710622,,0,-1,1768795070.690796
1768795070698.6084,1454.9450549450548,,0,-1,1768795070.6986084
1768795070706.421,1446.8864468864467,,0,-1,1768795070.706421
1768795070714.2334,1433.6996336996335,,0,-1,1768795070.7142334
1768795070722.046,1421.9780219780218,,0,-1,1768795070.722046
1768795070729.8584,1408.058608058608,,0,-1,1768795070.7298584
1768795070737.671,1396.3369963369962,,0,-1,1768795070.737671
1768795070745.4834,1385.3479853479853,,0,-1,1768795070.7454834
1768795070753.296,1379.4871794871794,,0,-1,1768795070.753296
1768795070761.1084,1369.9633699633698,,0,-1,1768795070.7611084
1768795070768.921,1359.7069597069597,,0,-1,1768795070.768921
1768795070776.7334,1353.113553113553,,0,-1,1768795070.7767334
1768795070784.546,1346.5201465201465,,0,-1,1768795070.784546
1768795070792.3584,1335.5311355311355,,0,-1,1768795070.7923584
1768795070800.171,1326.007326007326,,0,-1,1768795070.800171
1768795070807.9834,1323.076923076923,,0,-1,1768795070.8079834
1768795070815.796,1316.4835164835165,,0,-1,1768795070.815796
1768795070823.6084,1307.6923076923076,,0,-1,1768795070.8236084
1768795070831.421,1301.098901098901,,0,-1,1768795070.831421
1768795070839.2334,1295.970695970696,,0,-1,1768795070.8392334
1768795070847.046,1289.3772893772891,,0,-1,1768795070.847046
1768795070854.8584,1284.9816849816848,,0,-1,1768795070.8548584
1768795070862.671,1284.2490842490845,,0,-1,1768795070.862671
1768795070870.4834,1278.3882783882782,,0,-1,1768795070.8704834
1768795070878.296,1271.7948717948716,,0,-1,1768795070.878296
1768795070886.1084,1270.3296703296703,,0,-1,1768795070.8861084
1768795070893.921,1262.2710622710622,,0,-1,1768795070.893921
1768795070901.7334,1258.6080586080586,,0,-1,1768795070.9017334
1768795070909.546,1259.3406593406592,,0,-1,1768795070.909546
1768795070917.3584,1257.875457875458,,0,-1,1768795070.9173584
1768795070925.171,1263.003663003663,,0,-1,1768795070.925171
1768795070932.9834,1261.5384615384614,,0,-1,1768795070.9329834
1768795070940.796,1265.2014652014652,,0,-1,1768795070.940796
1768795070948.6084,1263.003663003663,,0,-1,1768795070.9486084
1768795070956.421,1264.4688644688645,,0,-1,1768795070.956421
1768795070964.2334,1260.805860805861,,0,-1,1768795070.9642334
1768795070972.046,1263.7362637362637,,0,-1,1768795070.972046
1768795070979.8584,1260.805860805861,,0,-1,1768795070.9798584
1768795070987.671,1261.5384615384614,,0,-1,1768795070.987671
1768795070995.4834,1257.875457875458,,0,-1,1768795070.9954834
1768795071003.296,1254.212454212454,,0,-1,1768795071.003296
1768795071011.1084,1252.7472527472526,,0,-1,1768795071.0111084
1768795071018.921,1246.153846153846,,0,-1,1768795071.018921
1768795071026.7334,1242.4908424908424,,0,-1,1768795071.0267334
1768795071034.546,1241.7582417582416,,0,-1,1768795071.034546
1768795071042.3584,1235.164835164835,,0,-1,1768795071.0423584
1768795071050.171,1232.967032967033,,0,-1,1768795071.050171
1768795071057.9834,1225.6410256410256,,0,-1,1768795071.0579834
1768795071065.796,1221.9780219780218,,0,-1,1768795071.065796
1768795071073.6084,1221.245421245421,,0,-1,1768795071.0736084
1768795071081.421,1214.6520146520145,,0,-1,1768795071.081421
1768795071089.2334,1212.4542124542124,,0,-1,1768795071.0892334
1768795071097.046,1212.4542124542124,,0,-1,1768795071.097046
1768795071104.8584,1216.8498168498168,,0,-1,1768795071.1048584
1768795071112.671,1229.3040293040292,,0,-1,1768795071.112671
1768795071120.4834,1245.4212454212454,,0,-1,1768795071.1204834
1768795071128.296,1263.7362637362637,,0,-1,1768795071.128296
1768795071136.1084,1288.6446886446886,,0,-1,1768795071.1361084
1768795071143.921,1313.5531135531137,,0,-1,1768795071.143921
1768795071151.7334,1345.054945054945,,0,-1,1768795071.1517334
1768795071159.546,1373.6263736263736,,0,-1,1768795071.159546
1768795071167.3584,1407.3260073260071,,0,-1,1768795071.1673584
1768795071175.171,1438.8278388278388,,0,-1,1768795071.175171
1768795071182.9834,1471.062271062271,,0,-1,1768795071.1829834
1768795071190.796,1503.2967032967033,,0,-1,1768795071.190796
1768795071198.6084,1533.3333333333333,,0,-1,1768795071.1986084
1768795071206.421,1566.3003663003662,,0,-1,1768795071.206421
1768795071214.2334,1593.4065934065934,,0,-1,1768795071.2142334
1768795071222.046,1619.047619047619,,0,-1,1768795071.222046
1768795071229.8584,1635.164835164835,,0,-1,1768795071.2298584
1768795071237.671,1647.6190476190477,,0,-1,1768795071.237671
1768795071245.4834,1652.7472527472526,,0,-1,1768795071.2454834
1768795071253.296,1656.4102564102564,,0,-1,1768795071.253296
1768795071261.1084,1652.7472527472526,,0,-1,1768795071.2611084
1768795071268.921,1656.4102564102564,,0,-1,1768795071.268921
1768795071276.7334,1652.7472527472526,,0,-1,1768795071.2767334
1768795071284.546,1654.9450549450548,,0,-1,1768795071.284546
1768795071292.3584,1652.0146520146518,,0,-1,1768795071.2923584
1768795071300.171,1651.2820512820513,,0,-1,1768795071.300171
1768795071307.9834,1642.4908424908424,,0,-1,1768795071.3079834
1768795071315.796,1638.8278388278386,,0,-1,1768795071.315796
1768795071323.6084,1628.5714285714284,,0,-1,1768795071.3236084
1768795071331.421,1619.7802197802196,,0,-1,1768795071.331421
1768795071339.2334,1612.4542124542124,,0,-1,1768795071.3392334
1768795071347.046,1602.9304029304028,,0,-1,1768795071.347046
1768795071354.8584,1600.7326007326003,,0,-1,1768795071.3548584
1768795071362.671,1595.6043956043954,,0,-1,1768795071.362671
1768795071370.4834,1593.4065934065934,,0,-1,1768795071.3704834
1768795071378.296,1586.8131868131868,,0,-1,1768795071.378296
1768795071386.1084,1575.091575091575,,0,-1,1768795071.3861084
1768795071393.921,1566.3003663003662,,0,-1,1768795071.393921
1768795071401.7334,1553.8461538461538,,0,-1,1768795071.4017334
1768795071409.546,1546.5201465201465,,0,-1,1768795071.409546
1768795071417.3584,1535.5311355311355,,0,-1,1768795071.4173584
1768795071425.171,1525.2747252747251,,0,-1,1768795071.425171
1768795071432.9834,1512.8205128205127,,0,-1,1768795071.4329834
1768795071440.796,1503.2967032967033,,0,-1,1768795071.440796
1768795071448.6084,1495.2380952380952,,0,-1,1768795071.4486084
1768795071456.421,1490.10989010989,,0,-1,1768795071.456421
1768795071464.2334,1483.5164835164835,,0,-1,1768795071.4642334
1768795071472.046,1475.4578754578754,,0,-1,1768795071.472046
1768795071479.8584,1464.4688644688645,,0,-1,1768795071.4798584
1768795071487.671,1456.4102564102564,,0,-1,1768795071.487671
1768795071495.4834,1448.3516483516482,,0,-1,1768795071.4954834
1768795071503.296,1449.084249084249,,0,-1,1768795071.503296
1768795071511.1084,1447.6190476190477,,0,-1,1768795071.5111084
1768795071518.921,1446.153846153846,,0,-1,1768795071.518921
1768795071526.7334,1446.8864468864467,,0,-1,1768795071.5267334
1768795071534.546,1446.153846153846,,0,-1,1768795071.534546
1768795071542.3584,1438.095238095238,,0,-1,1768795071.5423584
1768795071550.171,1426.3736263736262,,0,-1,1768795071.550171
1768795071557.9834,1418.3150183150185,,0,-1,1768795071.5579834
1768795071565.796,1413.1868131868132,,0,-1,1768795071.565796
1768795071573.6084,1408.058608058608,,0,-1,1768795071.5736084
1768795071581.421,1399.2673992673992,,0,-1,1768795071.581421
1768795071589.2334,1389.0109890109889,,0,-1,1768795071.5892334
1768795071597.046,1381.6849816849815,,0,-1,1768795071.597046
1768795071604.8584,1375.8241758241757,,0,-1,1768795071.6048584
1768795071612.671,1368.4981684981683,,0,-1,1768795071.612671
1768795071620.4834,1359.7069597069597,,0,-1,1768795071.6204834
1768795071628.296,1350.18315018315,,0,-1,1768795071.628296
1768795071636.1084,1341.3919413919414,,0,-1,1768795071.6361084
1768795071643.921,1334.7985347985348,,0,-1,1768795071.643921
1768795071651.7334,1323.8095238095236,,0,-1,1768795071.6517334
1768795071659.546,1312.087912087912,,0,-1,1768795071.659546
1768795071667.3584,1303.2967032967033,,0,-1,1768795071.6673584
1768795071675.171,1295.970695970696,,1,1,1768795071.675171
1768795071682.9834,1287.9120879120878,,1,1,1768795071.6829834
1768795071690.796,1283.5164835164835,,1,1,1768795071.690796
1768795071698.6084,1278.3882783882782,,1,1,1768795071.6986084
1768795071706.421,1271.062271062271,,1,1,1768795071.706421
1768795071714.2334,1267.3992673992673,,1,1,1768795071.7142334
1768795071722.046,1263.003663003663,,1,1,1768795071.722046
1768795071729.8584,1255.6776556776556,,1,1,1768795071.7298584
1768795071737.671,1245.4212454212454,,1,1,1768795071.737671
1768795071745.4834,1238.095238095238,,1,1,1768795071.7454834
1768795071753.296,1235.8974358974358,,1,1,1768795071.753296
1768795071761.1084,1232.967032967033,,1,1,1768795071.7611084
1768795071768.921,1227.8388278388277,,1,1,1768795071.768921
1768795071776.7334,1222.7106227106226,,1,1,1768795071.7767334
1768795071784.546,1219.7802197802198,,1,1,1768795071.784546
1768795071792.3584,1219.7802197802198,,1,1,1768795071.7923584
1768795071800.171,1222.7106227106226,,1,1,1768795071.800171
1768795071807.9834,1226.3736263736264,,1,1,1768795071.8079834
1768795071815.796,1230.03663003663,,1,1,1768795071.815796
1768795071823.6084,1235.164835164835,,1,1,1768795071.8236084
1768795071831.421,1238.8278388278388,,1,1,1768795071.831421
1768795071839.2334,1243.2234432234432,,1,1,1768795071.8392334
1768795071847.046,1249.8168498168498,,1,1,1768795071.847046
1768795071854.8584,1253.479853479853,,1,1,1768795071.8548584
1768795071862.671,1249.084249084249,,1,1,1768795071.862671
1768795071870.4834,1241.0256410256409,,1,1,1768795071.8704834
1768795071878.296,1233.6996336996335,,1,1,1768795071.878296
1768795071886.1084,1227.8388278388277,,1,1,1768795071.8861084
1768795071893.921,1219.047619047619,,1,1,1768795071.893921
1768795071901.7334,1205.8608058608058,,1,1,1768795071.9017334
1768795071909.546,1192.6739926739926,,1,1,1768795071.909546
1768795071917.3584,1183.150183150183,,1,1,1768795071.9173584
1768795071925.171,1176.5567765567764,,1,1,1768795071.925171
1768795071932.9834,1173.6263736263736,,1,1,1768795071.9329834
1768795071940.796,1170.6959706959706,,1,1,1768795071.940796
1768795071948.6084,1164.8351648351647,,1,1,1768795071.9486084
1768795071956.421,1161.904761904762,,1,1,1768795071.956421
1768795071964.2334,1164.8351648351647,,1,1,1768795071.9642334
1768795071972.046,1168.4981684981683,,1,1,1768795071.972046
1768795071979.8584,1169.9633699633698,,1,1,1768795071.9798584
1768795071987.671,1172.161172161172,,1,1,1768795071.987671
1768795071995.4834,1174.3589743589744,,1,1,1768795071.9954834
1768795072003.296,1175.0915750915751,,1,1,1768795072.003296
1768795072011.1084,1174.3589743589744,,1,1,1768795072.0111084
1768795072018.921,1174.3589743589744,,1,1,1768795072.018921
1768795072026.7334,1175.8241758241757,,1,1,1768795072.0267334
1768795072034.546,1179.4871794871794,,1,1,1768795072.034546
1768795072042.3584,1183.150183150183,,1,1,1768795072.0423584
1768795072050.171,1181.6849816849815,,1,1,1768795072.050171
1768795072057.9834,1177.2893772893772,,1,1,1768795072.0579834
1768795072065.796,1172.161172161172,,1,1,1768795072.065796
1768795072073.6084,1167.7655677655678,,1,1,1768795072.0736084
1768795072081.421,1163.3699633699632,,1,1,1768795072.081421
1768795072089.2334,1162.6373626373625,,1,1,1768795072.0892334
1768795072097.046,1164.8351648351647,,1,1,1768795072.097046
1768795072104.8584,1168.4981684981683,,1,1,1768795072.1048584
1768795072112.671,1170.6959706959706,,1,1,1768795072.112671
1768795072120.4834,1174.3589743589744,,1,1,1768795072.1204834
1768795072128.296,1178.021978021978,,1,1,1768795072.128296
1768795072136.1084,1183.8827838827838,,1,1,1768795072.1361084
1768795072143.921,1189.0109890109889,,1,1,1768795072.143921
1768795072151.7334,1192.6739926739926,,1,1,1768795072.1517334
1768795072159.546,1195.6043956043954,,1,1,1768795072.159546
1768795072167.3584,1194.8717948717947,,1,1,1768795072.1673584
1768795072175.171,1192.6739926739926,,1,1,1768795072.175171
1768795072182.9834,1186.080586080586,,1,1,1768795072.1829834
1768795072190.796,1179.4871794871794,,1,1,1768795072.190796
1768795072198.6084,1175.0915750915751,,1,1,1768795072.1986084
1768795072206.421,1169.9633699633698,,1,1,1768795072.206421
1768795072214.2334,1169.9633699633698,,1,1,1768795072.2142334
1768795072222.046,1167.7655677655678,,1,1,1768795072.222046
1768795072229.8584,1166.3003663003662,,1,1,1768795072.2298584
1768795072237.671,1166.3003663003662,,1,1,1768795072.237671
1768795072245.4834,1170.6959706959706,,1,1,1768795072.2454834
1768795072253.296,1180.2197802197802,,1,1,1768795072.253296
1768795072261.1084,1193.4065934065934,,1,1,1768795072.2611084
1768795072268.921,1208.7912087912086,,1,1,1768795072.268921
1768795072276.7334,1227.8388278388277,,1,1,1768795072.2767334
1768795072284.546,1252.7472527472526,,1,1,1768795072.284546
1768795072292.3584,1277.6556776556777,,1,1,1768795072.2923584
1768795072300.171,1304.0293040293038,,1,1,1768795072.300171
1768795072307.9834,1332.6007326007325,,1,1,1768795072.3079834
1768795072315.796,1359.7069597069597,,1,1,1768795072.315796
1768795072323.6084,1385.3479853479853,,1,1,1768795072.3236084
1768795072331.421,1408.058608058608,,1,1,1768795072.331421
1768795072339.2334,1427.8388278388277,,1,1,1768795072.3392334
1768795072347.046,1443.2234432234432,,1,1,1768795072.347046
1768795072354.8584,1454.9450549450548,,1,1,1768795072.3548584
1768795072362.671,1466.6666666666663,,1,1,1768795072.362671
1768795072370.4834,1478.3882783882782,,1,1,1768795072.3704834
1768795072378.296,1486.4468864468863,,1,1,1768795072.378296
1768795072386.1084,1490.8424908424906,,1,1,1768795072.3861084
1768795072393.921,1496.7032967032967,,1,1,1768795072.393921
1768795072401.7334,1499.6336996336995,,1,1,1768795072.4017334
1768795072409.546,1500.3663003663005,,1,1,1768795072.409546
1768795072417.3584,1498.168498168498,,1,1,1768795072.4173584
1768795072425.171,1491.5750915750914,,1,1,1768795072.425171
1768795072432.9834,1484.2490842490845,,1,1,1768795072.4329834
1768795072440.796,1479.120879120879,,1,1,1768795072.440796
1768795072448.6084,1477.6556776556777,,1,1,1768795072.4486084
1768795072456.421,1475.4578754578754,,1,1,1768795072.456421
1768795072464.2334,1473.992673992674,,1,1,1768795072.4642334
1768795072472.046,1469.5970695970695,,1,1,1768795072.472046
1768795072479.8584,1462.2710622710622,,1,1,1768795072.4798584
1768795072487.671,1454.9450549450548,,1,1,1768795072.487671
1768795072495.4834,1448.3516483516482,,1,1,1768795072.4954834
1768795072503.296,1439.5604395604394,,1,1,1768795072.503296
1768795072511.1084,1429.3040293040292,,1,1,1768795072.5111084
1768795072518.921,1416.8498168498168,,1,1,1768795072.518921
1768795072526.7334,1402.9304029304028,,1,1,1768795072.5267334
1768795072534.546,1391.2087912087911,,1,1,1768795072.534546
1768795072542.3584,1375.8241758241757,,1,1,1768795072.5423584
1768795072550.171,1359.7069597069597,,1,1,1768795072.550171
1768795072557.9834,1349.4505494505493,,1,1,1768795072.5579834
1768795072565.796,1346.5201465201465,,1,1,1768795072.565796
1768795072573.6084,1347.985347985348,,1,1,1768795072.5736084
1768795072581.421,1351.6483516483515,,1,1,1768795072.581421
1768795072589.2334,1353.113553113553,,1,1,1768795072.5892334
1768795072597.046,1356.7765567765566,,1,1,1768795072.597046
1768795072604.8584,1360.4395604395604,,1,1,1768795072.6048584
1768795072612.671,1364.102564102564,,1,1,1768795072.612671
1768795072620.4834,1363.3699633699632,,1,1,1768795072.6204834
1768795072628.296,1365.5677655677655,,1,1,1768795072.628296
1768795072636.1084,1369.230769230769,,1,1,1768795072.6361084
1768795072643.921,1373.6263736263736,,1,1,1768795072.643921
1768795072651.7334,1378.021978021978,,1,1,1768795072.6517334
1768795072659.546,1382.4175824175825,,1,1,1768795072.659546
1768795072667.3584,1382.4175824175825,,1,1,1768795072.6673584
1768795072675.171,1381.6849816849815,,1,1,1768795072.675171
1768795072682.9834,1380.952380952381,,1,1,1768795072.6829834
1768795072690.796,1378.7545787545787,,1,1,1768795072.690796
1768795072698.6084,1377.2893772893772,,1,1,1768795072.6986084
1768795072706.421,1375.091575091575,,1,1,1768795072.706421
1768795072714.2334,1369.9633699633698,,1,1,1768795072.7142334
1768795072722.046,1361.1721611721612,,1,1,1768795072.722046
1768795072729.8584,1347.985347985348,,1,1,1768795072.7298584
1768795072737.671,1334.7985347985348,,1,1,1768795072.737671
1768795072745.4834,1320.8791208791208,,1,1,1768795072.7454834
1768795072753.296,1307.6923076923076,,1,1,1768795072.753296
1768795072761.1084,1296.7032967032967,,1,1,1768795072.7611084
1768795072768.921,1287.179487179487,,1,1,1768795072.768921
1768795072776.7334,1279.8534798534797,,1,1,1768795072.7767334
1768795072784.546,1273.260073260073,,1,1,1768795072.784546
1768795072792.3584,1271.062271062271,,1,1,1768795072.7923584
1768795072800.171,1271.7948717948716,,1,1,1768795072.800171
1768795072807.9834,1272.5274725274724,,1,1,1768795072.8079834
1768795072815.796,1273.260073260073,,1,1,1768795072.815796
1768795072823.6084,1272.5274725274724,,1,1,1768795072.8236084
1768795072831.421,1271.7948717948716,,1,1,1768795072.831421
1768795072839.2334,1267.3992673992673,,1,1,1768795072.8392334
1768795072847.046,1260.07326007326,,1,1,1768795072.847046
1768795072854.8584,1249.084249084249,,1,1,1768795072.8548584
1768795072862.671,1241.7582417582416,,1,1,1768795072.862671
1768795072870.4834,1233.6996336996335,,1,1,1768795072.8704834
1768795072878.296,1227.106227106227,,1,1,1768795072.878296
1768795072886.1084,1225.6410256410256,,1,1,1768795072.8861084
1768795072893.921,1227.106227106227,,1,1,1768795072.893921
1768795072901.7334,1230.7692307692307,,1,1,1768795072.9017334
1768795072909.546,1232.2344322344322,,1,1,1768795072.909546
1768795072917.3584,1230.7692307692307,,1,1,1768795072.9173584
1768795072925.171,1227.8388278388277,,1,1,1768795072.925171
1768795072932.9834,1224.9084249084249,,1,1,1768795072.9329834
1768795072940.796,1221.9780219780218,,1,1,1768795072.940796
1768795072948.6084,1218.3150183150185,,1,1,1768795072.9486084
1768795072956.421,1216.117216117216,,1,1,1768795072.956421
1768795072964.2334,1213.1868131868132,,1,1,1768795072.9642334
1768795072972.046,1212.4542124542124,,1,1,1768795072.972046
1768795072979.8584,1213.9194139194135,,1,1,1768795072.9798584
1768795072987.671,1216.8498168498168,,1,1,1768795072.987671
1768795072995.4834,1218.3150183150185,,1,1,1768795072.9954834
1768795073003.296,1218.3150183150185,,1,1,1768795073.003296
1768795073011.1084,1214.6520146520145,,1,1,1768795073.0111084
1768795073018.921,1205.8608058608058,,1,1,1768795073.018921
1768795073026.7334,1195.6043956043954,,1,1,1768795073.0267334
1768795073034.546,1186.080586080586,,1,1,1768795073.034546
1768795073042.3584,1180.952380952381,,1,1,1768795073.0423584
1768795073050.171,1180.2197802197802,,1,1,1768795073.050171
1768795073057.9834,1179.4871794871794,,1,1,1768795073.0579834
1768795073065.796,1175.8241758241757,,1,1,1768795073.065796
1768795073073.6084,1171.428571428571,,1,1,1768795073.0736084
1768795073081.421,1167.7655677655678,,1,1,1768795073.081421
1768795073089.2334,1166.3003663003662,,1,1,1768795073.0892334
1768795073097.046,1165.5677655677655,,1,1,1768795073.097046
1768795073104.8584,1167.032967032967,,1,1,1768795073.1048584
1768795073112.671,1167.7655677655678,,1,1,1768795073.112671
1768795073120.4834,1167.7655677655678,,1,1,1768795073.1204834
1768795073128.296,1167.032967032967,,1,1,1768795073.128296
1768795073136.1084,1167.032967032967,,1,1,1768795073.1361084
1768795073143.921,1169.230769230769,,1,1,1768795073.143921
1768795073151.7334,1171.428571428571,,1,1,1768795073.1517334
1768795073159.546,1171.428571428571,,1,1,1768795073.159546
1768795073167.3584,1168.4981684981683,,1,1,1768795073.1673584
1768795073175.171,1161.904761904762,,1,1,1768795073.175171
1768795073182.9834,1153.8461538461538,,1,1,1768795073.1829834
1768795073190.796,1146.5201465201465,,1,1,1768795073.190796
1768795073198.6084,1140.6593406593406,,1,1,1768795073.1986084
1768795073206.421,1135.5311355311355,,1,1,1768795073.206421
1768795073214.2334,1131.8681318681315,,1,1,1768795073.2142334
1768795073222.046,1130.4029304029302,,1,1,1768795073.222046
1768795073229.8584,1131.135531135531,,1,1,1768795073.2298584
1768795073237.671,1134.065934065934,,1,1,1768795073.237671
1768795073245.4834,1137.7289377289376,,1,1,1768795073.2454834
1768795073253.296,1141.3919413919414,,1,1,1768795073.253296
1768795073261.1084,1145.054945054945,,1,1,1768795073.2611084
1768795073268.921,1150.9157509157508,,1,1,1768795073.268921
1768795073276.7334,1156.043956043956,,1,1,1768795073.2767334
1768795073284.546,1160.4395604395604,,1,1,1768795073.284546
1768795073292.3584,1164.8351648351647,,1,1,1768795073.2923584
1768795073300.171,1172.161172161172,,1,1,1768795073.300171
1768795073307.9834,1180.952380952381,,1,1,1768795073.3079834
1768795073315.796,1188.278388278388,,1,1,1768795073.315796
1768795073323.6084,1198.5347985347985,,1,1,1768795073.3236084
1768795073331.421,1208.058608058608,,1,1,1768795073.331421
1768795073339.2334,1218.3150183150185,,1,1,1768795073.3392334
1768795073347.046,1232.2344322344322,,1,1,1768795073.347046
1768795073354.8584,1245.4212454212454,,1,1,1768795073.3548584
1768795073362.671,1258.6080586080586,,1,1,1768795073.362671
1768795073370.4834,1269.5970695970695,,1,1,1768795073.3704834
1768795073378.296,1278.3882783882782,,1,1,1768795073.378296
1768795073386.1084,1282.7838827838827,,1,1,1768795073.3861084
1768795073393.921,1284.9816849816848,,1,1,1768795073.393921
1768795073401.7334,1285.7142857142856,,1,1,1768795073.4017334
1768795073409.546,1286.4468864468863,,1,1,1768795073.409546
1768795073417.3584,1287.9120879120878,,1,1,1768795073.4173584
1768795073425.171,1289.3772893772891,,1,1,1768795073.425171
1768795073432.9834,1287.9120879120878,,1,1,1768795073.4329834
1768795073440.796,1285.7142857142856,,1,1,1768795073.440796
1768795073448.6084,1286.4468864468863,,1,1,1768795073.4486084
1768795073456.421,1288.6446886446886,,1,1,1768795073.456421
1768795073464.2334,1293.7728937728937,,1,1,1768795073.4642334
1768795073472.046,1299.6336996336995,,1,1,1768795073.472046
1768795073479.8584,1302.5641025641023,,1,1,1768795073.4798584
1768795073487.671,1299.6336996336995,,1,1,1768795073.487671
1768795073495.4834,1292.3076923076922,,1,1,1768795073.4954834
1768795073503.296,1288.6446886446886,,1,1,1768795073.503296
1768795073511.1084,1285.7142857142856,,1,1,1768795073.5111084
1768795073518.921,1283.5164835164835,,1,1,1768795073.518921
1768795073526.7334,1280.5860805860805,,1,1,1768795073.5267334
1768795073534.546,1276.923076923077,,1,1,1768795073.534546
1768795073542.3584,1273.992673992674,,1,1,1768795073.5423584
1768795073550.171,1269.5970695970695,,1,1,1768795073.550171
1768795073557.9834,1265.2014652014652,,1,1,1768795073.5579834
1768795073565.796,1260.805860805861,,1,1,1768795073.565796
1768795073573.6084,1257.142857142857,,1,1,1768795073.5736084
1768795073581.421,1252.014652014652,,1,1,1768795073.581421
1768795073589.2334,1249.084249084249,,1,1,1768795073.5892334
1768795073597.046,1251.2820512820513,,1,1,1768795073.597046
1768795073604.8584,1254.9450549450548,,1,1,1768795073.6048584
1768795073612.671,1258.6080586080586,,0,-1,1768795073.612671
1768795073620.4834,1262.2710622710622,,0,-1,1768795073.6204834
1768795073628.296,1268.131868131868,,0,-1,1768795073.628296
1768795073636.1084,1268.8644688644688,,0,-1,1768795073.6361084
1768795073643.921,1264.4688644688645,,0,-1,1768795073.643921
1768795073651.7334,1261.5384615384614,,0,-1,1768795073.6517334
1768795073659.546,1261.5384615384614,,0,-1,1768795073.659546
1768795073667.3584,1263.003663003663,,0,-1,1768795073.6673584
1768795073675.171,1265.2014652014652,,0,-1,1768795073.675171
1768795073682.9834,1265.9340659340658,,0,-1,1768795073.6829834
1768795073690.796,1265.9340659340658,,0,-1,1768795073.690796
1768795073698.6084,1265.2014652014652,,0,-1,1768795073.6986084
1768795073706.421,1259.3406593406592,,0,-1,1768795073.706421
1768795073714.2334,1254.212454212454,,0,-1,1768795073.7142334
1768795073722.046,1252.7472527472526,,0,-1,1768795073.722046
1768795073729.8584,1252.7472527472526,,0,-1,1768795073.7298584
1768795073737.671,1252.7472527472526,,0,-1,1768795073.737671
1768795073745.4834,1251.2820512820513,,0,-1,1768795073.7454834
1768795073753.296,1249.084249084249,,0,-1,1768795073.753296
1768795073761.1084,1247.6190476190477,,0,-1,1768795073.7611084
1768795073768.921,1247.6190476190477,,0,-1,1768795073.768921
1768795073776.7334,1245.4212454212454,,0,-1,1768795073.7767334
1768795073784.546,1241.0256410256409,,0,-1,1768795073.784546
1768795073792.3584,1236.6300366300366,,0,-1,1768795073.7923584
1768795073800.171,1229.3040293040292,,0,-1,1768795073.800171
1768795073807.9834,1227.106227106227,,0,-1,1768795073.8079834
1768795073815.796,1226.3736263736264,,0,-1,1768795073.815796
1768795073823.6084,1224.9084249084249,,0,-1,1768795073.8236084
1768795073831.421,1224.175824175824,,0,-1,1768795073.831421
1768795073839.2334,1221.245421245421,,0,-1,1768795073.8392334
1768795073847.046,1216.117216117216,,0,-1,1768795073.847046
1768795073854.8584,1210.989010989011,,0,-1,1768795073.8548584
1768795073862.671,1209.5238095238094,,0,-1,1768795073.862671
1768795073870.4834,1208.7912087912086,,0,-1,1768795073.8704834
1768795073878.296,1209.5238095238094,,0,-1,1768795073.878296
1768795073886.1084,1210.989010989011,,0,-1,1768795073.8861084
1768795073893.921,1213.1868131868132,,0,-1,1768795073.893921
1768795073901.7334,1216.8498168498168,,0,-1,1768795073.9017334
1768795073909.546,1219.7802197802198,,0,-1,1768795073.909546
1768795073917.3584,1221.245421245421,,0,-1,1768795073.9173584
1768795073925.171,1221.245421245421,,0,-1,1768795073.925171
1768795073932.9834,1218.3150183150185,,0,-1,1768795073.9329834
1768795073940.796,1213.1868131868132,,0,-1,1768795073.940796
1768795073948.6084,1205.8608058608058,,0,-1,1768795073.9486084
1768795073956.421,1197.8021978021975,,0,-1,1768795073.956421
1768795073964.2334,1193.4065934065934,,0,-1,1768795073.9642334
1768795073972.046,1191.941391941392,,0,-1,1768795073.972046
1768795073979.8584,1190.4761904761904,,0,-1,1768795073.9798584
1768795073987.671,1192.6739926739926,,0,-1,1768795073.987671
1768795073995.4834,1197.8021978021975,,0,-1,1768795073.9954834
1768795074003.296,1203.6630036630036,,0,-1,1768795074.003296
1768795074011.1084,1207.3260073260074,,0,-1,1768795074.0111084
1768795074018.921,1208.7912087912086,,0,-1,1768795074.018921
1768795074026.7334,1212.4542124542124,,0,-1,1768795074.0267334
1768795074034.546,1212.4542124542124,,0,-1,1768795074.034546
1768795074042.3584,1209.5238095238094,,0,-1,1768795074.0423584
1768795074050.171,1210.2564102564102,,0,-1,1768795074.050171
1768795074057.9834,1209.5238095238094,,0,-1,1768795074.0579834
1768795074065.796,1204.3956043956043,,0,-1,1768795074.065796
1768795074073.6084,1202.9304029304028,,0,-1,1768795074.0736084
1768795074081.421,1204.3956043956043,,0,-1,1768795074.081421
1768795074089.2334,1201.4652014652013,,0,-1,1768795074.0892334
1768795074097.046,1194.1391941391942,,0,-1,1768795074.097046
1768795074104.8584,1184.6153846153843,,0,-1,1768795074.1048584
1768795074112.671,1178.7545787545787,,0,-1,1768795074.112671
1768795074120.4834,1178.021978021978,,0,-1,1768795074.1204834
1768795074128.296,1178.7545787545787,,0,-1,1768795074.128296
1768795074136.1084,1181.6849816849815,,0,-1,1768795074.1361084
1768795074143.921,1185.3479853479853,,0,-1,1768795074.143921
1768795074151.7334,1186.080586080586,,0,-1,1768795074.1517334
1768795074159.546,1182.4175824175825,,0,-1,1768795074.159546
1768795074167.3584,1181.6849816849815,,0,-1,1768795074.1673584
1768795074175.171,1183.150183150183,,0,-1,1768795074.175171
1768795074182.9834,1178.021978021978,,0,-1,1768795074.1829834
1768795074190.796,1169.230769230769,,0,-1,1768795074.190796
1768795074198.6084,1161.1721611721612,,0,-1,1768795074.1986084
1768795074206.421,1158.974358974359,,0,-1,1768795074.206421
1768795074214.2334,1161.904761904762,,0,-1,1768795074.2142334
1768795074222.046,1164.102564102564,,0,-1,1768795074.222046
1768795074229.8584,1171.428571428571,,0,-1,1768795074.2298584
1768795074237.671,1176.5567765567764,,0,-1,1768795074.237671
1768795074245.4834,1180.952380952381,,0,-1,1768795074.2454834
1768795074253.296,1189.0109890109889,,0,-1,1768795074.253296
1768795074261.1084,1194.8717948717947,,0,-1,1768795074.2611084
1768795074268.921,1200.7326007326008,,0,-1,1768795074.268921
1768795074276.7334,1209.5238095238094,,0,-1,1768795074.2767334
1768795074284.546,1217.5824175824175,,0,-1,1768795074.284546
1768795074292.3584,1224.175824175824,,0,-1,1768795074.2923584
1768795074300.171,1230.03663003663,,0,-1,1768795074.300171
1768795074307.9834,1239.5604395604396,,0,-1,1768795074.3079834
1768795074315.796,1245.4212454212454,,0,-1,1768795074.315796
1768795074323.6084,1243.2234432234432,,0,-1,1768795074.3236084
1768795074331.421,1243.2234432234432,,0,-1,1768795074.331421
1768795074339.2334,1243.2234432234432,,0,-1,1768795074.3392334
1768795074347.046,1238.095238095238,,0,-1,1768795074.347046
1768795074354.8584,1234.4322344322345,,0,-1,1768795074.3548584
1768795074362.671,1230.7692307692307,,0,-1,1768795074.362671
1768795074370.4834,1226.3736263736264,,0,-1,1768795074.3704834
1768795074378.296,1226.3736263736264,,0,-1,1768795074.378296
1768795074386.1084,1226.3736263736264,,0,-1,1768795074.3861084
1768795074393.921,1220.5128205128203,,0,-1,1768795074.393921
1768795074401.7334,1221.9780219780218,,0,-1,1768795074.4017334
1768795074409.546,1216.8498168498168,,0,-1,1768795074.409546
1768795074417.3584,1212.4542124542124,,0,-1,1768795074.4173584
1768795074425.171,1208.058608058608,,0,-1,1768795074.425171
1768795074432.9834,1200.7326007326008,,0,-1,1768795074.4329834
1768795074440.796,1197.8021978021975,,0,-1,1768795074.440796
1768795074448.6084,1191.2087912087911,,0,-1,1768795074.4486084
1768795074456.421,1187.5457875457876,,0,-1,1768795074.456421
1768795074464.2334,1185.3479853479853,,0,-1,1768795074.4642334
1768795074472.046,1188.278388278388,,0,-1,1768795074.472046
1768795074479.8584,1193.4065934065934,,0,-1,1768795074.4798584
1768795074487.671,1197.069597069597,,0,-1,1768795074.487671
1768795074495.4834,1200.7326007326008,,0,-1,1768795074.4954834
1768795074503.296,1205.8608058608058,,0,-1,1768795074.503296
1768795074511.1084,1205.8608058608058,,0,-1,1768795074.5111084
1768795074518.921,1208.7912087912086,,0,-1,1768795074.518921
1768795074526.7334,1217.5824175824175,,0,-1,1768795074.5267334
1768795074534.546,1218.3150183150185,,0,-1,1768795074.534546
1768795074542.3584,1219.047619047619,,0,-1,1768795074.5423584
1768795074550.171,1216.8498168498168,,0,-1,1768795074.550171
1768795074557.9834,1214.6520146520145,,0,-1,1768795074.5579834
1768795074565.796,1211.7216117216117,,0,-1,1768795074.565796
1768795074573.6084,1212.4542124542124,,0,-1,1768795074.5736084
1768795074581.421,1215.3846153846152,,0,-1,1768795074.581421
1768795074589.2334,1213.1868131868132,,0,-1,1768795074.5892334
1768795074597.046,1210.2564102564102,,0,-1,1768795074.597046
1768795074604.8584,1211.7216117216117,,0,-1,1768795074.6048584
1768795074612.671,1219.047619047619,,0,-1,1768795074.612671
1768795074620.4834,1223.4432234432234,,0,-1,1768795074.6204834
1768795074628.296,1231.5018315018317,,0,-1,1768795074.628296
1768795074636.1084,1239.5604395604396,,0,-1,1768795074.6361084
1768795074643.921,1243.956043956044,,0,-1,1768795074.643921
1768795074651.7334,1252.7472527472526,,0,-1,1768795074.6517334
1768795074659.546,1257.142857142857,,0,-1,1768795074.659546
1768795074667.3584,1260.805860805861,,0,-1,1768795074.6673584
1768795074675.171,1261.5384615384614,,0,-1,1768795074.675171
1768795074682.9834,1257.142857142857,,0,-1,1768795074.6829834
1768795074690.796,1255.6776556776556,,0,-1,1768795074.690796
1768795074698.6084,1251.2820512820513,,0,-1,1768795074.6986084
1768795074706.421,1246.8864468864467,,0,-1,1768795074.706421
1768795074714.2334,1247.6190476190477,,0,-1,1768795074.7142334
1768795074722.046,1244.688644688645,,0,-1,1768795074.722046
1768795074729.8584,1248.3516483516482,,0,-1,1768795074.7298584
1768795074737.671,1254.9450549450548,,0,-1,1768795074.737671
1768795074745.4834,1253.479853479853,,0,-1,1768795074.7454834
1768795074753.296,1251.2820512820513,,0,-1,1768795074.753296
1768795074761.1084,1252.7472527472526,,0,-1,1768795074.7611084
1768795074768.921,1254.212454212454,,0,-1,1768795074.768921
1768795074776.7334,1254.9450549450548,,0,-1,1768795074.7767334
1768795074784.546,1261.5384615384614,,0,-1,1768795074.784546
1768795074792.3584,1265.9340659340658,,0,-1,1768795074.7923584
1768795074800.171,1269.5970695970695,,0,-1,1768795074.800171
1768795074807.9834,1273.260073260073,,0,-1,1768795074.8079834
1768795074815.796,1267.3992673992673,,0,-1,1768795074.815796
1768795074823.6084,1262.2710622710622,,0,-1,1768795074.8236084
1768795074831.421,1251.2820512820513,,0,-1,1768795074.831421
1768795074839.2334,1246.8864468864467,,0,-1,1768795074.8392334
1768795074847.046,1238.095238095238,,0,-1,1768795074.847046
1768795074854.8584,1236.6300366300366,,0,-1,1768795074.8548584
1768795074862.671,1231.5018315018317,,0,-1,1768795074.862671
1768795074870.4834,1232.967032967033,,0,-1,1768795074.8704834
1768795074878.296,1234.4322344322345,,0,-1,1768795074.878296
1768795074886.1084,1238.095238095238,,0,-1,1768795074.8861084
1768795074893.921,1244.688644688645,,0,-1,1768795074.893921
1768795074901.7334,1247.6190476190477,,0,-1,1768795074.9017334
1768795074909.546,1256.4102564102564,,0,-1,1768795074.909546
1768795074917.3584,1260.805860805861,,0,-1,1768795074.9173584
1768795074925.171,1261.5384615384614,,0,-1,1768795074.925171
1768795074932.9834,1264.4688644688645,,0,-1,1768795074.9329834
1768795074940.796,1264.4688644688645,,0,-1,1768795074.940796
1768795074948.6084,1265.2014652014652,,0,-1,1768795074.9486084
1768795074956.421,1264.4688644688645,,0,-1,1768795074.956421
1768795074964.2334,1261.5384615384614,,0,-1,1768795074.9642334
1768795074972.046,1257.142857142857,,0,-1,1768795074.972046
1768795074979.8584,1251.2820512820513,,0,-1,1768795074.9798584
1768795074987.671,1246.8864468864467,,0,-1,1768795074.987671
1768795074995.4834,1235.8974358974358,,0,-1,1768795074.9954834
1768795075003.296,1230.03663003663,,0,-1,1768795075.003296
1768795075011.1084,1221.9780219780218,,0,-1,1768795075.0111084
1768795075018.921,1221.245421245421,,0,-1,1768795075.018921
1768795075026.7334,1221.245421245421,,0,-1,1768795075.0267334
1768795075034.546,1221.9780219780218,,0,-1,1768795075.034546
1768795075042.3584,1227.8388278388277,,0,-1,1768795075.0423584
1768795075050.171,1228.5714285714284,,0,-1,1768795075.050171
1768795075057.9834,1232.967032967033,,0,-1,1768795075.0579834
1768795075065.796,1229.3040293040292,,0,-1,1768795075.065796
1768795075073.6084,1230.03663003663,,0,-1,1768795075.0736084
1768795075081.421,1227.8388278388277,,0,-1,1768795075.081421
1768795075089.2334,1234.4322344322345,,0,-1,1768795075.0892334
1768795075097.046,1238.8278388278388,,0,-1,1768795075.097046
1768795075104.8584,1248.3516483516482,,0,-1,1768795075.1048584
1768795075112.671,1251.2820512820513,,0,-1,1768795075.112671
1768795075120.4834,1250.5494505494505,,0,-1,1768795075.1204834
1768795075128.296,1251.2820512820513,,0,-1,1768795075.128296
1768795075136.1084,1246.153846153846,,0,-1,1768795075.1361084
1768795075143.921,1246.8864468864467,,0,-1,1768795075.143921
1768795075151.7334,1243.956043956044,,0,-1,1768795075.1517334
1768795075159.546,1249.8168498168498,,0,-1,1768795075.159546
1768795075167.3584,1253.479853479853,,0,-1,1768795075.1673584
1768795075175.171,1252.014652014652,,0,-1,1768795075.175171
1768795075182.9834,1249.084249084249,,0,-1,1768795075.1829834
1768795075190.796,1241.0256410256409,,0,-1,1768795075.190796
1768795075198.6084,1235.8974358974358,,0,-1,1768795075.1986084
1768795075206.421,1230.7692307692307,,0,-1,1768795075.206421
1768795075214.2334,1225.6410256410256,,0,-1,1768795075.2142334
1768795075222.046,1225.6410256410256,,0,-1,1768795075.222046
1768795075229.8584,1224.9084249084249,,0,-1,1768795075.2298584
1768795075237.671,1232.2344322344322,,0,-1,1768795075.237671
1768795075245.4834,1236.6300366300366,,0,-1,1768795075.2454834
1768795075253.296,1244.688644688645,,0,-1,1768795075.253296
1768795075261.1084,1247.6190476190477,,0,-1,1768795075.2611084
1768795075268.921,1260.07326007326,,0,-1,1768795075.268921
1768795075276.7334,1273.260073260073,,0,-1,1768795075.2767334
1768795075284.546,1284.9816849816848,,0,-1,1768795075.284546
1768795075292.3584,1297.4358974358977,,0,-1,1768795075.2923584
1768795075300.171,1305.4945054945051,,0,-1,1768795075.300171
1768795075307.9834,1317.216117216117,,0,-1,1768795075.3079834
1768795075315.796,1323.076923076923,,0,-1,1768795075.315796
1768795075323.6084,1324.5421245421244,,0,-1,1768795075.3236084
1768795075331.421,1328.937728937729,,0,-1,1768795075.331421
1768795075339.2334,1332.6007326007325,,0,-1,1768795075.3392334
1768795075347.046,1335.5311355311355,,0,-1,1768795075.347046
1768795075354.8584,1343.5897435897434,,0,-1,1768795075.3548584
1768795075362.671,1347.985347985348,,0,-1,1768795075.362671
1768795075370.4834,1349.4505494505493,,0,-1,1768795075.3704834
1768795075378.296,1353.113553113553,,0,-1,1768795075.378296
1768795075386.1084,1353.113553113553,,0,-1,1768795075.3861084
1768795075393.921,1353.8461538461538,,0,-1,1768795075.393921
1768795075401.7334,1355.311355311355,,0,-1,1768795075.4017334
1768795075409.546,1350.18315018315,,0,-1,1768795075.409546
1768795075417.3584,1347.985347985348,,0,-1,1768795075.4173584
1768795075425.171,1339.92673992674,,0,-1,1768795075.425171
1768795075432.9834,1330.4029304029302,,0,-1,1768795075.4329834
1768795075440.796,1320.8791208791208,,0,-1,1768795075.440796
1768795075448.6084,1310.6227106227104,,0,-1,1768795075.4486084
1768795075456.421,1303.2967032967033,,0,-1,1768795075.456421
1768795075464.2334,1301.8315018315018,,0,-1,1768795075.4642334
1768795075472.046,1299.6336996336995,,0,-1,1768795075.472046
1768795075479.8584,1304.7619047619046,,0,-1,1768795075.4798584
1768795075487.671,1310.6227106227104,,0,-1,1768795075.487671
1768795075495.4834,1317.9487179487178,,0,-1,1768795075.4954834
1768795075503.296,1325.2747252747251,,0,-1,1768795075.503296
1768795075511.1084,1328.937728937729,,0,-1,1768795075.5111084
1768795075518.921,1329.6703296703297,,0,-1,1768795075.518921
1768795075526.7334,1331.8681318681315,,0,-1,1768795075.5267334
1768795075534.546,1328.937728937729,,0,-1,1768795075.534546
1768795075542.3584,1331.8681318681315,,0,-1,1768795075.5423584
1768795075550.171,1332.6007326007325,,0,-1,1768795075.550171
1768795075557.9834,1334.065934065934,,0,-1,1768795075.5579834
1768795075565.796,1337.7289377289376,,0,-1,1768795075.565796
1768795075573.6084,1339.194139194139,,0,-1,1768795075.5736084
1768795075581.421,1337.7289377289376,,0,-1,1768795075.581421
1768795075589.2334,1339.92673992674,,0,-1,1768795075.5892334
1768795075597.046,1342.124542124542,,0,-1,1768795075.597046
1768795075604.8584,1342.857142857143,,0,-1,1768795075.6048584
1768795075612.671,1344.3223443223442,,0,-1,1768795075.612671
1768795075620.4834,1346.5201465201465,,0,-1,1768795075.6204834
1768795075628.296,1350.18315018315,,0,-1,1768795075.628296
1768795075636.1084,1348.7179487179487,,0,-1,1768795075.6361084
1768795075643.921,1347.985347985348,,0,-1,1768795075.643921
1768795075651.7334,1348.7179487179487,,0,-1,1768795075.6517334
1768795075659.546,1345.7875457875457,,0,-1,1768795075.659546
1768795075667.3584,1340.6593406593406,,0,-1,1768795075.6673584
1768795075675.171,1337.7289377289376,,0,-1,1768795075.675171
1768795075682.9834,1336.9963369963368,,0,-1,1768795075.6829834
1768795075690.796,1332.6007326007325,,0,-1,1768795075.690796
1768795075698.6084,1332.6007326007325,,0,-1,1768795075.6986084
1768795075706.421,1336.263736263736,,0,-1,1768795075.706421
1768795075714.2334,1336.263736263736,,0,-1,1768795075.7142334
1768795075722.046,1336.9963369963368,,0,-1,1768795075.722046
1768795075729.8584,1336.9963369963368,,0,-1,1768795075.7298584
1768795075737.671,1333.3333333333333,,0,-1,1768795075.737671
1768795075745.4834,1329.6703296703297,,0,-1,1768795075.7454834
1768795075753.296,1328.937728937729,,0,-1,1768795075.753296
1768795075761.1084,1327.4725274725274,,0,-1,1768795075.7611084
1768795075768.921,1322.3443223443223,,0,-1,1768795075.768921
1768795075776.7334,1314.2857142857142,,0,-1,1768795075.7767334
1768795075784.546,1309.89010989011,,0,-1,1768795075.784546
1768795075792.3584,1309.1575091575091,,0,-1,1768795075.7923584
1768795075800.171,1307.6923076923076,,0,-1,1768795075.800171
1768795075807.9834,1309.1575091575091,,0,-1,1768795075.8079834
1768795075815.796,1312.087912087912,,0,-1,1768795075.815796
1768795075823.6084,1315.018315018315,,0,-1,1768795075.8236084
1768795075831.421,1317.216117216117,,0,-1,1768795075.831421
1768795075839.2334,1318.6813186813183,,0,-1,1768795075.8392334
1768795075847.046,1317.9487179487178,,0,-1,1768795075.847046
1768795075854.8584,1315.7509157509155,,0,-1,1768795075.8548584
1768795075862.671,1312.087912087912,,0,-1,1768795075.862671
1768795075870.4834,1303.2967032967033,,0,-1,1768795075.8704834
1768795075878.296,1302.5641025641023,,0,-1,1768795075.878296
1768795075886.1084,1298.168498168498,,0,-1,1768795075.8861084
1768795075893.921,1295.970695970696,,0,-1,1768795075.893921
1768795075901.7334,1295.970695970696,,0,-1,1768795075.9017334
1768795075909.546,1293.7728937728937,,0,-1,1768795075.909546
1768795075917.3584,1294.5054945054944,,0,-1,1768795075.9173584
1768795075925.171,1297.4358974358977,,0,-1,1768795075.925171
1768795075932.9834,1298.9010989010987,,0,-1,1768795075.9329834
1768795075940.796,1297.4358974358977,,0,-1,1768795075.940796
1768795075948.6084,1298.168498168498,,0,-1,1768795075.9486084
1768795075956.421,1301.098901098901,,0,-1,1768795075.956421
1768795075964.2334,1302.5641025641023,,0,-1,1768795075.9642334
1768795075972.046,1303.2967032967033,,1,2,1768795075.972046
1768795075979.8584,1307.6923076923076,,1,2,1768795075.9798584
1768795075987.671,1307.6923076923076,,1,2,1768795075.987671
1768795075995.4834,1306.227106227106,,1,2,1768795075.9954834
1768795076003.296,1306.9597069597069,,1,2,1768795076.003296
1768795076011.1084,1306.227106227106,,1,2,1768795076.0111084
1768795076018.921,1301.098901098901,,1,2,1768795076.018921
1768795076026.7334,1297.4358974358977,,1,2,1768795076.0267334
1768795076034.546,1295.970695970696,,1,2,1768795076.034546
1768795076042.3584,1294.5054945054944,,1,2,1768795076.0423584
1768795076050.171,1293.7728937728937,,1,2,1768795076.050171
1768795076057.9834,1293.7728937728937,,1,2,1768795076.0579834
1768795076065.796,1296.7032967032967,,1,2,1768795076.065796
1768795076073.6084,1297.4358974358977,,1,2,1768795076.0736084
1768795076081.421,1293.7728937728937,,1,2,1768795076.081421
1768795076089.2334,1291.5750915750914,,1,2,1768795076.0892334
1768795076097.046,1289.3772893772891,,1,2,1768795076.097046
1768795076104.8584,1285.7142857142856,,1,2,1768795076.1048584
1768795076112.671,1276.190476190476,,1,2,1768795076.112671
1768795076120.4834,1268.131868131868,,1,2,1768795076.1204834
1768795076128.296,1269.5970695970695,,1,2,1768795076.128296
1768795076136.1084,1272.5274725274724,,1,2,1768795076.1361084
1768795076143.921,1273.992673992674,,1,2,1768795076.143921
1768795076151.7334,1274.7252747252746,,1,2,1768795076.1517334
1768795076159.546,1274.7252747252746,,1,2,1768795076.159546
1768795076167.3584,1276.190476190476,,1,2,1768795076.1673584
1768795076175.171,1277.6556776556777,,1,2,1768795076.175171
1768795076182.9834,1279.8534798534797,,1,2,1768795076.1829834
1768795076190.796,1286.4468864468863,,1,2,1768795076.190796
1768795076198.6084,1286.4468864468863,,1,2,1768795076.1986084
1768795076206.421,1287.179487179487,,1,2,1768795076.206421
1768795076214.2334,1287.9120879120878,,1,2,1768795076.2142334
1768795076222.046,1285.7142857142856,,1,2,1768795076.222046
1768795076229.8584,1280.5860805860805,,1,2,1768795076.2298584
1768795076237.671,1273.260073260073,,1,2,1768795076.237671
1768795076245.4834,1271.7948717948716,,1,2,1768795076.2454834
1768795076253.296,1271.7948717948716,,1,2,1768795076.253296
1768795076261.1084,1271.062271062271,,1,2,1768795076.2611084
1768795076268.921,1267.3992673992673,,1,2,1768795076.268921
1768795076276.7334,1263.003663003663,,1,2,1768795076.2767334
1768795076284.546,1260.07326007326,,1,2,1768795076.284546
1768795076292.3584,1254.212454212454,,1,2,1768795076.2923584
1768795076300.171,1249.084249084249,,1,2,1768795076.300171
1768795076307.9834,1243.956043956044,,1,2,1768795076.3079834
1768795076315.796,1246.153846153846,,1,2,1768795076.315796
1768795076323.6084,1255.6776556776556,,1,2,1768795076.3236084
1768795076331.421,1269.5970695970695,,1,2,1768795076.331421
1768795076339.2334,1287.179487179487,,1,2,1768795076.3392334
1768795076347.046,1307.6923076923076,,1,2,1768795076.347046
1768795076354.8584,1331.8681318681315,,1,2,1768795076.3548584
1768795076362.671,1356.043956043956,,1,2,1768795076.362671
1768795076370.4834,1376.5567765567764,,1,2,1768795076.3704834
1768795076378.296,1391.2087912087911,,1,2,1768795076.378296
1768795076386.1084,1402.197802197802,,1,2,1768795076.3861084
1768795076393.921,1410.2564102564102,,1,2,1768795076.393921
1768795076401.7334,1414.6520146520145,,1,2,1768795076.4017334
1768795076409.546,1415.3846153846152,,1,2,1768795076.409546
1768795076417.3584,1413.9194139194135,,1,2,1768795076.4173584
1768795076425.171,1410.989010989011,,1,2,1768795076.425171
1768795076432.9834,1409.5238095238094,,1,2,1768795076.4329834
1768795076440.796,1408.7912087912086,,1,2,1768795076.440796
1768795076448.6084,1410.2564102564102,,1,2,1768795076.4486084
1768795076456.421,1410.989010989011,,1,2,1768795076.456421
1768795076464.2334,1412.4542124542124,,1,2,1768795076.4642334
1768795076472.046,1410.2564102564102,,1,2,1768795076.472046
1768795076479.8584,1407.3260073260071,,1,2,1768795076.4798584
1768795076487.671,1405.128205128205,,1,2,1768795076.487671
1768795076495.4834,1405.128205128205,,1,2,1768795076.4954834
1768795076503.296,1405.8608058608058,,1,2,1768795076.503296
1768795076511.1084,1401.4652014652013,,1,2,1768795076.5111084
1768795076518.921,1401.4652014652013,,1,2,1768795076.518921
1768795076526.7334,1407.3260073260071,,1,2,1768795076.5267334
1768795076534.546,1408.7912087912086,,1,2,1768795076.534546
1768795076542.3584,1413.1868131868132,,1,2,1768795076.5423584
1768795076550.171,1417.5824175824175,,1,2,1768795076.550171
1768795076557.9834,1416.117216117216,,1,2,1768795076.5579834
1768795076565.796,1416.117216117216,,1,2,1768795076.565796
1768795076573.6084,1416.117216117216,,1,2,1768795076.5736084
1768795076581.421,1412.4542124542124,,1,2,1768795076.581421
1768795076589.2334,1405.128205128205,,1,2,1768795076.5892334
1768795076597.046,1399.2673992673992,,1,2,1768795076.597046
1768795076604.8584,1396.3369963369962,,1,2,1768795076.6048584
1768795076612.671,1391.941391941392,,1,2,1768795076.612671
1768795076620.4834,1385.3479853479853,,1,2,1768795076.6204834
1768795076628.296,1381.6849816849815,,1,2,1768795076.628296
1768795076636.1084,1382.4175824175825,,1,2,1768795076.6361084
1768795076643.921,1382.4175824175825,,1,2,1768795076.643921
1768795076651.7334,1382.4175824175825,,1,2,1768795076.6517334
1768795076659.546,1382.4175824175825,,1,2,1768795076.659546
1768795076667.3584,1385.3479853479853,,1,2,1768795076.6673584
1768795076675.171,1389.0109890109889,,1,2,1768795076.675171
1768795076682.9834,1394.139194139194,,1,2,1768795076.6829834
1768795076690.796,1402.9304029304028,,1,2,1768795076.690796
1768795076698.6084,1413.1868131868132,,1,2,1768795076.6986084
1768795076706.421,1421.245421245421,,1,2,1768795076.706421
1768795076714.2334,1427.106227106227,,1,2,1768795076.7142334
1768795076722.046,1425.6410256410256,,1,2,1768795076.722046
1768795076729.8584,1420.5128205128203,,1,2,1768795076.7298584
1768795076737.671,1415.3846153846152,,1,2,1768795076.737671
1768795076745.4834,1411.7216117216117,,1,2,1768795076.7454834
1768795076753.296,1407.3260073260071,,1,2,1768795076.753296
1768795076761.1084,1401.4652014652013,,1,2,1768795076.7611084
1768795076768.921,1396.3369963369962,,1,2,1768795076.768921
1768795076776.7334,1393.4065934065934,,1,2,1768795076.7767334
1768795076784.546,1391.941391941392,,1,2,1768795076.784546
1768795076792.3584,1388.278388278388,,1,2,1768795076.7923584
1768795076800.171,1384.6153846153843,,1,2,1768795076.800171
1768795076807.9834,1382.4175824175825,,1,2,1768795076.8079834
1768795076815.796,1381.6849816849815,,1,2,1768795076.815796
1768795076823.6084,1385.3479853479853,,1,2,1768795076.8236084
1768795076831.421,1390.4761904761904,,1,2,1768795076.831421
1768795076839.2334,1393.4065934065934,,1,2,1768795076.8392334
1768795076847.046,1391.941391941392,,1,2,1768795076.847046
1768795076854.8584,1389.7435897435896,,1,2,1768795076.8548584
1768795076862.671,1386.8131868131868,,1,2,1768795076.862671
1768795076870.4834,1381.6849816849815,,1,2,1768795076.8704834
1768795076878.296,1372.161172161172,,1,2,1768795076.878296
1768795076886.1084,1361.904761904762,,1,2,1768795076.8861084
1768795076893.921,1352.3809523809523,,1,2,1768795076.893921
1768795076901.7334,1347.985347985348,,1,2,1768795076.9017334
1768795076909.546,1346.5201465201465,,1,2,1768795076.909546
1768795076917.3584,1344.3223443223442,,1,2,1768795076.9173584
1768795076925.171,1343.5897435897434,,1,2,1768795076.925171
1768795076932.9834,1344.3223443223442,,1,2,1768795076.9329834
1768795076940.796,1347.2527472527472,,1,2,1768795076.940796
1768795076948.6084,1351.6483516483515,,1,2,1768795076.9486084
1768795076956.421,1350.9157509157508,,1,2,1768795076.956421
1768795076964.2334,1347.2527472527472,,1,2,1768795076.9642334
1768795076972.046,1342.857142857143,,1,2,1768795076.972046
1768795076979.8584,1342.857142857143,,1,2,1768795076.9798584
1768795076987.671,1348.7179487179487,,1,2,1768795076.987671
1768795076995.4834,1352.3809523809523,,1,2,1768795076.9954834
1768795077003.296,1356.043956043956,,1,2,1768795077.003296
1768795077011.1084,1357.5091575091574,,1,2,1768795077.0111084
1768795077018.921,1356.043956043956,,1,2,1768795077.018921
1768795077026.7334,1347.985347985348,,1,2,1768795077.0267334
1768795077034.546,1340.6593406593406,,1,2,1768795077.034546
1768795077042.3584,1336.263736263736,,1,2,1768795077.0423584
1768795077050.171,1335.5311355311355,,1,2,1768795077.050171
1768795077057.9834,1335.5311355311355,,1,2,1768795077.0579834
1768795077065.796,1337.7289377289376,,1,2,1768795077.065796
1768795077073.6084,1338.4615384615383,,1,2,1768795077.0736084
1768795077081.421,1341.3919413919414,,1,2,1768795077.081421
1768795077089.2334,1346.5201465201465,,1,2,1768795077.0892334
1768795077097.046,1351.6483516483515,,1,2,1768795077.097046
1768795077104.8584,1356.7765567765566,,1,2,1768795077.1048584
1768795077112.671,1356.043956043956,,1,2,1768795077.112671
1768795077120.4834,1350.18315018315,,1,2,1768795077.1204834
1768795077128.296,1346.5201465201465,,1,2,1768795077.128296
1768795077136.1084,1344.3223443223442,,1,2,1768795077.1361084
1768795077143.921,1342.857142857143,,1,2,1768795077.143921
1768795077151.7334,1339.92673992674,,1,2,1768795077.1517334
1768795077159.546,1340.6593406593406,,1,2,1768795077.159546
1768795077167.3584,1340.6593406593406,,1,2,1768795077.1673584
1768795077175.171,1339.92673992674,,1,2,1768795077.175171
1768795077182.9834,1336.9963369963368,,1,2,1768795077.1829834
1768795077190.796,1336.9963369963368,,1,2,1768795077.190796
1768795077198.6084,1336.9963369963368,,1,2,1768795077.1986084
1768795077206.421,1334.7985347985348,,1,2,1768795077.206421
1768795077214.2334,1331.135531135531,,1,2,1768795077.2142334
1768795077222.046,1328.937728937729,,1,2,1768795077.222046
1768795077229.8584,1325.2747252747251,,1,2,1768795077.2298584
1768795077237.671,1321.6117216117216,,1,2,1768795077.237671
1768795077245.4834,1315.018315018315,,1,2,1768795077.2454834
1768795077253.296,1306.227106227106,,1,2,1768795077.253296
1768795077261.1084,1298.168498168498,,1,2,1768795077.2611084
1768795077268.921,1295.2380952380952,,1,2,1768795077.268921
1768795077276.7334,1292.3076923076922,,1,2,1768795077.2767334
1768795077284.546,1292.3076923076922,,1,2,1768795077.284546
1768795077292.3584,1297.4358974358977,,1,2,1768795077.2923584
1768795077300.171,1306.227106227106,,1,2,1768795077.300171
1768795077307.9834,1318.6813186813183,,1,2,1768795077.3079834
1768795077315.796,1333.3333333333333,,1,2,1768795077.315796
1768795077323.6084,1350.18315018315,,1,2,1768795077.3236084
1768795077331.421,1368.4981684981683,,1,2,1768795077.331421
1768795077339.2334,1387.5457875457876,,1,2,1768795077.3392334
1768795077347.046,1404.3956043956043,,1,2,1768795077.347046
1768795077354.8584,1417.5824175824175,,1,2,1768795077.3548584
1768795077362.671,1431.5018315018317,,1,2,1768795077.362671
1768795077370.4834,1446.153846153846,,1,2,1768795077.3704834
1768795077378.296,1457.875457875458,,1,2,1768795077.378296
1768795077386.1084,1465.201465201465,,1,2,1768795077.3861084
1768795077393.921,1470.3296703296703,,1,2,1768795077.393921
1768795077401.7334,1473.992673992674,,1,2,1768795077.4017334
1768795077409.546,1473.992673992674,,1,2,1768795077.409546
1768795077417.3584,1474.7252747252746,,1,2,1768795077.4173584
1768795077425.171,1476.923076923077,,1,2,1768795077.425171
1768795077432.9834,1479.8534798534797,,1,2,1768795077.4329834
1768795077440.796,1484.2490842490845,,1,2,1768795077.440796
1768795077448.6084,1489.3772893772891,,1,2,1768795077.4486084
1768795077456.421,1493.7728937728937,,1,2,1768795077.456421
1768795077464.2334,1495.970695970696,,1,2,1768795077.4642334
1768795077472.046,1495.2380952380952,,1,2,1768795077.472046
1768795077479.8584,1494.5054945054944,,1,2,1768795077.4798584
1768795077487.671,1490.8424908424906,,1,2,1768795077.487671
1768795077495.4834,1484.9816849816848,,1,2,1768795077.4954834
1768795077503.296,1478.3882783882782,,1,2,1768795077.503296
1768795077511.1084,1471.7948717948716,,1,2,1768795077.5111084
1768795077518.921,1464.4688644688645,,1,2,1768795077.518921
1768795077526.7334,1460.07326007326,,1,2,1768795077.5267334
1768795077534.546,1460.805860805861,,1,2,1768795077.534546
1768795077542.3584,1463.7362637362637,,1,2,1768795077.5423584
1768795077550.171,1466.6666666666663,,1,2,1768795077.550171
1768795077557.9834,1466.6666666666663,,1,2,1768795077.5579834
1768795077565.796,1462.2710622710622,,1,2,1768795077.565796
1768795077573.6084,1457.142857142857,,1,2,1768795077.5736084
1768795077581.421,1451.2820512820513,,1,2,1768795077.581421
1768795077589.2334,1447.6190476190477,,1,2,1768795077.5892334
1768795077597.046,1445.4212454212454,,1,2,1768795077.597046
1768795077604.8584,1444.688644688645,,1,2,1768795077.6048584
1768795077612.671,1445.4212454212454,,1,2,1768795077.612671
1768795077620.4834,1448.3516483516482,,1,2,1768795077.6204834
1768795077628.296,1453.479853479853,,1,2,1768795077.628296
1768795077636.1084,1457.142857142857,,1,2,1768795077.6361084
1768795077643.921,1461.5384615384614,,1,2,1768795077.643921
1768795077651.7334,1466.6666666666663,,1,2,1768795077.6517334
1768795077659.546,1468.131868131868,,1,2,1768795077.659546
1768795077667.3584,1470.3296703296703,,1,2,1768795077.6673584
1768795077675.171,1471.062271062271,,1,2,1768795077.675171
1768795077682.9834,1471.062271062271,,1,2,1768795077.6829834
1768795077690.796,1470.3296703296703,,1,2,1768795077.690796
1768795077698.6084,1467.3992673992673,,1,2,1768795077.6986084
1768795077706.421,1464.4688644688645,,1,2,1768795077.706421
1768795077714.2334,1460.07326007326,,1,2,1768795077.7142334
1768795077722.046,1455.6776556776556,,1,2,1768795077.722046
1768795077729.8584,1450.5494505494505,,1,2,1768795077.7298584
1768795077737.671,1447.6190476190477,,1,2,1768795077.737671
1768795077745.4834,1447.6190476190477,,1,2,1768795077.7454834
1768795077753.296,1449.084249084249,,1,2,1768795077.753296
1768795077761.1084,1451.2820512820513,,1,2,1768795077.7611084
1768795077768.921,1450.5494505494505,,1,2,1768795077.768921
1768795077776.7334,1449.084249084249,,1,2,1768795077.7767334
1768795077784.546,1446.153846153846,,1,2,1768795077.784546
1768795077792.3584,1446.153846153846,,1,2,1768795077.7923584
1768795077800.171,1441.7582417582416,,1,2,1768795077.800171
1768795077807.9834,1437.362637362637,,1,2,1768795077.8079834
1768795077815.796,1431.5018315018317,,1,2,1768795077.815796
1768795077823.6084,1427.8388278388277,,1,2,1768795077.8236084
1768795077831.421,1424.9084249084249,,1,2,1768795077.831421
1768795077839.2334,1422.7106227106226,,1,2,1768795077.8392334
1768795077847.046,1423.4432234432234,,1,2,1768795077.847046
1768795077854.8584,1422.7106227106226,,1,2,1768795077.8548584
1768795077862.671,1421.9780219780218,,1,2,1768795077.862671
1768795077870.4834,1419.047619047619,,1,2,1768795077.8704834
1768795077878.296,1415.3846153846152,,1,2,1768795077.878296
1768795077886.1084,1410.989010989011,,1,2,1768795077.8861084
1768795077893.921,1406.5934065934066,,1,2,1768795077.893921
1768795077901.7334,1401.4652014652013,,1,2,1768795077.9017334
1768795077909.546,1397.069597069597,,1,2,1768795077.909546
1768795077917.3584,1394.139194139194,,1,2,1768795077.9173584
1768795077925.171,1393.4065934065934,,1,2,1768795077.925171
1768795077932.9834,1394.139194139194,,0,-1,1768795077.9329834
1768795077940.796,1398.5347985347985,,0,-1,1768795077.940796
1768795077948.6084,1402.9304029304028,,0,-1,1768795077.9486084
1768795077956.421,1405.8608058608058,,0,-1,1768795077.956421
1768795077964.2334,1405.8608058608058,,0,-1,1768795077.9642334
1768795077972.046,1405.8608058608058,,0,-1,1768795077.972046
1768795077979.8584,1405.128205128205,,0,-1,1768795077.9798584
1768795077987.671,1403.6630036630036,,0,-1,1768795077.987671
1768795077995.4834,1403.6630036630036,,0,-1,1768795077.9954834
1768795078003.296,1400.7326007326003,,0,-1,1768795078.003296
1768795078011.1084,1398.5347985347985,,0,-1,1768795078.0111084
1768795078018.921,1396.3369963369962,,0,-1,1768795078.018921
1768795078026.7334,1394.139194139194,,0,-1,1768795078.0267334
1768795078034.546,1389.7435897435896,,0,-1,1768795078.034546
1768795078042.3584,1383.8827838827838,,0,-1,1768795078.0423584
1768795078050.171,1376.5567765567764,,0,-1,1768795078.050171
1768795078057.9834,1369.9633699633698,,0,-1,1768795078.0579834
1768795078065.796,1364.8351648351647,,0,-1,1768795078.065796
1768795078073.6084,1364.102564102564,,0,-1,1768795078.0736084
1768795078081.421,1364.102564102564,,0,-1,1768795078.081421
1768795078089.2334,1364.8351648351647,,0,-1,1768795078.0892334
1768795078097.046,1365.5677655677655,,0,-1,1768795078.097046
1768795078104.8584,1361.1721611721612,,0,-1,1768795078.1048584
1768795078112.671,1356.7765567765566,,0,-1,1768795078.112671
1768795078120.4834,1358.241758241758,,0,-1,1768795078.1204834
1768795078128.296,1364.102564102564,,0,-1,1768795078.128296
1768795078136.1084,1369.9633699633698,,0,-1,1768795078.1361084
1768795078143.921,1372.8937728937728,,0,-1,1768795078.143921
1768795078151.7334,1371.428571428571,,0,-1,1768795078.1517334
1768795078159.546,1368.4981684981683,,0,-1,1768795078.159546
1768795078167.3584,1365.5677655677655,,0,-1,1768795078.1673584
1768795078175.171,1361.904761904762,,0,-1,1768795078.175171
1768795078182.9834,1361.1721611721612,,0,-1,1768795078.1829834
1768795078190.796,1358.974358974359,,0,-1,1768795078.190796
1768795078198.6084,1353.8461538461538,,0,-1,1768795078.1986084
1768795078206.421,1347.985347985348,,0,-1,1768795078.206421
1768795078214.2334,1347.985347985348,,0,-1,1768795078.2142334
1768795078222.046,1354.5787545787546,,0,-1,1768795078.222046
1768795078229.8584,1368.4981684981683,,0,-1,1768795078.2298584
1768795078237.671,1388.278388278388,,0,-1,1768795078.237671
1768795078245.4834,1410.989010989011,,0,-1,1768795078.2454834
1768795078253.296,1433.6996336996335,,0,-1,1768795078.253296
1768795078261.1084,1456.4102564102564,,0,-1,1768795078.2611084
1768795078268.921,1482.7838827838827,,0,-1,1768795078.268921
1768795078276.7334,1509.1575091575091,,0,-1,1768795078.2767334
1768795078284.546,1534.065934065934,,0,-1,1768795078.284546
1768795078292.3584,1554.5787545787546,,0,-1,1768795078.2923584
1768795078300.171,1575.8241758241757,,0,-1,1768795078.300171
1768795078307.9834,1593.4065934065934,,0,-1,1768795078.3079834
1768795078315.796,1608.058608058608,,0,-1,1768795078.315796
1768795078323.6084,1620.5128205128203,,0,-1,1768795078.3236084
1768795078331.421,1629.3040293040292,,0,-1,1768795078.331421
1768795078339.2334,1636.6300366300366,,0,-1,1768795078.3392334
1768795078347.046,1641.0256410256409,,0,-1,1768795078.347046
1768795078354.8584,1641.7582417582416,,0,-1,1768795078.3548584
1768795078362.671,1636.6300366300366,,0,-1,1768795078.362671
1768795078370.4834,1627.8388278388277,,0,-1,1768795078.3704834
1768795078378.296,1615.3846153846152,,0,-1,1768795078.378296
1768795078386.1084,1606.5934065934066,,0,-1,1768795078.3861084
1768795078393.921,1604.3956043956043,,0,-1,1768795078.393921
1768795078401.7334,1607.3260073260071,,0,-1,1768795078.4017334
1768795078409.546,1612.4542124542124,,0,-1,1768795078.409546
1768795078417.3584,1619.7802197802196,,0,-1,1768795078.4173584
1768795078425.171,1627.106227106227,,0,-1,1768795078.425171
1768795078432.9834,1635.164835164835,,0,-1,1768795078.4329834
1768795078440.796,1638.095238095238,,0,-1,1768795078.440796
1768795078448.6084,1636.6300366300366,,0,-1,1768795078.4486084
1768795078456.421,1632.9670329670328,,0,-1,1768795078.456421
1768795078464.2334,1628.5714285714284,,0,-1,1768795078.4642334
1768795078472.046,1624.175824175824,,0,-1,1768795078.472046
1768795078479.8584,1620.5128205128203,,0,-1,1768795078.4798584
1768795078487.671,1614.6520146520145,,0,-1,1768795078.487671
1768795078495.4834,1605.8608058608058,,0,-1,1768795078.4954834
1768795078503.296,1594.8717948717947,,0,-1,1768795078.503296
1768795078511.1084,1583.150183150183,,0,-1,1768795078.5111084
1768795078518.921,1576.5567765567764,,0,-1,1768795078.518921
1768795078526.7334,1575.091575091575,,0,-1,1768795078.5267334
1768795078534.546,1577.2893772893772,,0,-1,1768795078.534546
1768795078542.3584,1580.2197802197802,,0,-1,1768795078.5423584
1768795078550.171,1580.2197802197802,,0,-1,1768795078.550171
1768795078557.9834,1578.021978021978,,0,-1,1768795078.5579834
1768795078565.796,1577.2893772893772,,0,-1,1768795078.565796
1768795078573.6084,1580.2197802197802,,0,-1,1768795078.5736084
1768795078581.421,1582.4175824175825,,0,-1,1768795078.581421
1768795078589.2334,1586.080586080586,,0,-1,1768795078.5892334
1768795078597.046,1583.8827838827838,,0,-1,1768795078.597046
1768795078604.8584,1585.3479853479853,,0,-1,1768795078.6048584
1768795078612.671,1589.7435897435896,,0,-1,1768795078.612671
1768795078620.4834,1589.7435897435896,,0,-1,1768795078.6204834
1768795078628.296,1584.6153846153843,,0,-1,1768795078.628296
1768795078636.1084,1575.8241758241757,,0,-1,1768795078.6361084
1768795078643.921,1566.3003663003662,,0,-1,1768795078.643921
1768795078651.7334,1560.4395604395604,,0,-1,1768795078.6517334
1768795078659.546,1555.311355311355,,0,-1,1768795078.659546
1768795078667.3584,1547.985347985348,,0,-1,1768795078.6673584
1768795078675.171,1537.7289377289376,,0,-1,1768795078.675171
1768795078682.9834,1531.135531135531,,0,-1,1768795078.6829834
1768795078690.796,1529.6703296703297,,0,-1,1768795078.690796
1768795078698.6084,1528.937728937729,,0,-1,1768795078.6986084
1768795078706.421,1529.6703296703297,,0,-1,1768795078.706421
1768795078714.2334,1532.6007326007325,,0,-1,1768795078.7142334
1768795078722.046,1535.5311355311355,,0,-1,1768795078.722046
1768795078729.8584,1531.8681318681315,,0,-1,1768795078.7298584
1768795078737.671,1520.8791208791208,,0,-1,1768795078.737671
1768795078745.4834,1512.087912087912,,0,-1,1768795078.7454834
1768795078753.296,1503.2967032967033,,0,-1,1768795078.753296
1768795078761.1084,1495.970695970696,,0,-1,1768795078.7611084
1768795078768.921,1487.9120879120878,,0,-1,1768795078.768921
1768795078776.7334,1477.6556776556777,,0,-1,1768795078.7767334
1768795078784.546,1471.062271062271,,0,-1,1768795078.784546
1768795078792.3584,1469.5970695970695,,0,-1,1768795078.7923584
1768795078800.171,1470.3296703296703,,0,-1,1768795078.800171
1768795078807.9834,1469.5970695970695,,0,-1,1768795078.8079834
1768795078815.796,1469.5970695970695,,0,-1,1768795078.815796
1768795078823.6084,1468.8644688644688,,0,-1,1768795078.8236084
1768795078831.421,1471.062271062271,,0,-1,1768795078.831421
1768795078839.2334,1468.8644688644688,,0,-1,1768795078.8392334
1768795078847.046,1463.7362637362637,,0,-1,1768795078.847046
1768795078854.8584,1459.3406593406592,,0,-1,1768795078.8548584
1768795078862.671,1455.6776556776556,,0,-1,1768795078.862671
1768795078870.4834,1448.3516483516482,,0,-1,1768795078.8704834
1768795078878.296,1439.5604395604394,,0,-1,1768795078.878296
1768795078886.1084,1430.7692307692307,,0,-1,1768795078.8861084
1768795078893.921,1423.4432234432234,,0,-1,1768795078.893921
1768795078901.7334,1419.7802197802198,,0,-1,1768795078.9017334
1768795078909.546,1419.7802197802198,,0,-1,1768795078.909546
1768795078917.3584,1421.245421245421,,0,-1,1768795078.9173584
1768795078925.171,1421.9780219780218,,0,-1,1768795078.925171
1768795078932.9834,1419.047619047619,,0,-1,1768795078.9329834
1768795078940.796,1416.8498168498168,,0,-1,1768795078.940796
1768795078948.6084,1415.3846153846152,,0,-1,1768795078.9486084
1768795078956.421,1412.4542124542124,,0,-1,1768795078.956421
1768795078964.2334,1405.128205128205,,0,-1,1768795078.9642334
1768795078972.046,1400.0,,0,-1,1768795078.972046
1768795078979.8584,1397.069597069597,,0,-1,1768795078.9798584
1768795078987.671,1395.6043956043954,,0,-1,1768795078.987671
1768795078995.4834,1391.2087912087911,,0,-1,1768795078.9954834
1768795079003.296,1383.150183150183,,0,-1,1768795079.003296
1768795079011.1084,1372.161172161172,,0,-1,1768795079.0111084
1768795079018.921,1361.904761904762,,0,-1,1768795079.018921
1768795079026.7334,1353.113553113553,,0,-1,1768795079.0267334
1768795079034.546,1343.5897435897434,,0,-1,1768795079.034546
1768795079042.3584,1336.263736263736,,0,-1,1768795079.0423584
1768795079050.171,1333.3333333333333,,0,-1,1768795079.050171
1768795079057.9834,1334.7985347985348,,0,-1,1768795079.0579834
1768795079065.796,1337.7289377289376,,0,-1,1768795079.065796
1768795079073.6084,1343.5897435897434,,0,-1,1768795079.0736084
1768795079081.421,1349.4505494505493,,0,-1,1768795079.081421
1768795079089.2334,1353.8461538461538,,0,-1,1768795079.0892334
1768795079097.046,1358.974358974359,,0,-1,1768795079.097046
1768795079104.8584,1364.102564102564,,0,-1,1768795079.1048584
1768795079112.671,1369.9633699633698,,0,-1,1768795079.112671
1768795079120.4834,1372.8937728937728,,0,-1,1768795079.1204834
1768795079128.296,1376.5567765567764,,0,-1,1768795079.128296
1768795079136.1084,1385.3479853479853,,0,-1,1768795079.1361084
1768795079143.921,1394.8717948717947,,0,-1,1768795079.143921
1768795079151.7334,1410.989010989011,,0,-1,1768795079.1517334
1768795079159.546,1429.3040293040292,,0,-1,1768795079.159546
1768795079167.3584,1452.014652014652,,0,-1,1768795079.1673584
1768795079175.171,1477.6556776556777,,0,-1,1768795079.175171
1768795079182.9834,1507.6923076923076,,0,-1,1768795079.1829834
1768795079190.796,1536.263736263736,,0,-1,1768795079.190796
1768795079198.6084,1561.9047619047617,,0,-1,1768795079.1986084
1768795079206.421,1585.3479853479853,,0,-1,1768795079.206421
1768795079214.2334,1610.2564102564102,,0,-1,1768795079.2142334
1768795079222.046,1631.5018315018317,,0,-1,1768795079.222046
1768795079229.8584,1651.2820512820513,,0,-1,1768795079.2298584
1768795079237.671,1663.7362637362637,,0,-1,1768795079.237671
1768795079245.4834,1670.3296703296703,,0,-1,1768795079.2454834
1768795079253.296,1677.6556776556774,,0,-1,1768795079.253296
1768795079261.1084,1684.9816849816848,,0,-1,1768795079.2611084
1768795079268.921,1694.5054945054944,,0,-1,1768795079.268921
1768795079276.7334,1701.8315018315018,,0,-1,1768795079.2767334
1768795079284.546,1708.4249084249084,,0,-1,1768795079.284546
1768795079292.3584,1718.6813186813183,,0,-1,1768795079.2923584
1768795079300.171,1733.3333333333333,,0,-1,1768795079.300171
1768795079307.9834,1744.3223443223442,,0,-1,1768795079.3079834
1768795079315.796,1749.4505494505493,,0,-1,1768795079.315796
1768795079323.6084,1751.6483516483515,,0,-1,1768795079.3236084
1768795079331.421,1752.3809523809523,,0,-1,1768795079.331421
1768795079339.2334,1750.9157509157508,,0,-1,1768795079.3392334
1768795079347.046,1747.985347985348,,0,-1,1768795079.347046
1768795079354.8584,1745.7875457875457,,0,-1,1768795079.3548584
1768795079362.671,1741.3919413919414,,0,-1,1768795079.362671
1768795079370.4834,1736.9963369963368,,0,-1,1768795079.3704834
1768795079378.296,1734.7985347985348,,0,-1,1768795079.378296
1768795079386.1084,1732.6007326007325,,0,-1,1768795079.3861084
1768795079393.921,1725.2747252747251,,0,-1,1768795079.393921
1768795079401.7334,1718.6813186813183,,0,-1,1768795079.4017334
1768795079409.546,1709.1575091575091,,0,-1,1768795079.409546
1768795079417.3584,1696.7032967032967,,0,-1,1768795079.4173584
1768795079425.171,1684.9816849816848,,0,-1,1768795079.425171
1768795079432.9834,1679.120879120879,,0,-1,1768795079.4329834
1768795079440.796,1672.5274725274724,,0,-1,1768795079.440796
1768795079448.6084,1666.6666666666663,,0,-1,1768795079.4486084
1768795079456.421,1662.2710622710622,,0,-1,1768795079.456421
1768795079464.2334,1662.2710622710622,,0,-1,1768795079.4642334
1768795079472.046,1660.805860805861,,0,-1,1768795079.472046
1768795079479.8584,1659.3406593406592,,0,-1,1768795079.4798584
1768795079487.671,1657.142857142857,,0,-1,1768795079.487671
1768795079495.4834,1657.142857142857,,0,-1,1768795079.4954834
1768795079503.296,1652.0146520146518,,0,-1,1768795079.503296
1768795079511.1084,1640.29304029304,,0,-1,1768795079.5111084
1768795079518.921,1632.2344322344322,,0,-1,1768795079.518921
1768795079526.7334,1632.2344322344322,,0,-1,1768795079.5267334
1768795079534.546,1631.5018315018317,,0,-1,1768795079.534546
1768795079542.3584,1635.8974358974358,,0,-1,1768795079.5423584
1768795079550.171,1643.2234432234432,,0,-1,1768795079.550171
1768795079557.9834,1643.2234432234432,,0,-1,1768795079.5579834
1768795079565.796,1645.4212454212452,,0,-1,1768795079.565796
1768795079573.6084,1645.4212454212452,,0,-1,1768795079.5736084
1768795079581.421,1642.4908424908424,,0,-1,1768795079.581421
1768795079589.2334,1641.7582417582416,,0,-1,1768795079.5892334
1768795079597.046,1635.8974358974358,,0,-1,1768795079.597046
1768795079604.8584,1626.3736263736262,,0,-1,1768795079.6048584
1768795079612.671,1617.5824175824175,,0,-1,1768795079.612671
1768795079620.4834,1608.058608058608,,0,-1,1768795079.6204834
1768795079628.296,1594.8717948717947,,0,-1,1768795079.628296
1768795079636.1084,1580.2197802197802,,0,-1,1768795079.6361084
1768795079643.921,1569.230769230769,,0,-1,1768795079.643921
1768795079651.7334,1563.3699633699632,,0,-1,1768795079.6517334
1768795079659.546,1555.311355311355,,0,-1,1768795079.659546
1768795079667.3584,1543.5897435897434,,0,-1,1768795079.6673584
1768795079675.171,1532.6007326007325,,0,-1,1768795079.675171
1768795079682.9834,1523.0769230769229,,0,-1,1768795079.6829834
1768795079690.796,1509.89010989011,,0,-1,1768795079.690796
1768795079698.6084,1493.040293040293,,0,-1,1768795079.6986084
1768795079706.421,1482.7838827838827,,0,-1,1768795079.706421
1768795079714.2334,1475.4578754578754,,0,-1,1768795079.7142334
1768795079722.046,1469.5970695970695,,0,-1,1768795079.722046
1768795079729.8584,1469.5970695970695,,0,-1,1768795079.7298584
1768795079737.671,1463.7362637362637,,0,-1,1768795079.737671
1768795079745.4834,1459.3406593406592,,0,-1,1768795079.7454834
1768795079753.296,1454.212454212454,,0,-1,1768795079.753296
1768795079761.1084,1444.688644688645,,0,-1,1768795079.7611084
1768795079768.921,1438.095238095238,,0,-1,1768795079.768921
1768795079776.7334,1430.7692307692307,,0,-1,1768795079.7767334
1768795079784.546,1420.5128205128203,,0,-1,1768795079.784546
1768795079792.3584,1415.3846153846152,,0,-1,1768795079.7923584
1768795079800.171,1415.3846153846152,,0,-1,1768795079.800171
1768795079807.9834,1416.8498168498168,,0,-1,1768795079.8079834
1768795079815.796,1419.7802197802198,,0,-1,1768795079.815796
1768795079823.6084,1427.106227106227,,0,-1,1768795079.8236084
1768795079831.421,1431.5018315018317,,0,-1,1768795079.831421
1768795079839.2334,1433.6996336996335,,0,-1,1768795079.8392334
1768795079847.046,1438.8278388278388,,0,-1,1768795079.847046
1768795079854.8584,1439.5604395604394,,0,-1,1768795079.8548584
1768795079862.671,1439.5604395604394,,0,-1,1768795079.862671
1768795079870.4834,1438.8278388278388,,0,-1,1768795079.8704834
1768795079878.296,1432.9670329670328,,0,-1,1768795079.878296
1768795079886.1084,1424.175824175824,,0,-1,1768795079.8861084
1768795079893.921,1417.5824175824175,,0,-1,1768795079.893921
1768795079901.7334,1411.7216117216117,,0,-1,1768795079.9017334
1768795079909.546,1398.5347985347985,,0,-1,1768795079.909546
1768795079917.3584,1380.952380952381,,0,-1,1768795079.9173584
1768795079925.171,1365.5677655677655,,0,-1,1768795079.925171
1768795079932.9834,1353.113553113553,,0,-1,1768795079.9329834
1768795079940.796,1343.5897435897434,,0,-1,1768795079.940796
1768795079948.6084,1331.135531135531,,0,-1,1768795079.9486084
1768795079956.421,1326.739926739927,,0,-1,1768795079.956421
1768795079964.2334,1321.6117216117216,,0,-1,1768795079.9642334
1768795079972.046,1316.4835164835165,,0,-1,1768795079.972046
1768795079979.8584,1315.018315018315,,0,-1,1768795079.9798584
1768795079987.671,1309.89010989011,,0,-1,1768795079.987671
1768795079995.4834,1308.4249084249084,,0,-1,1768795079.9954834
1768795080003.296,1312.8205128205127,,0,-1,1768795080.003296
1768795080011.1084,1313.5531135531137,,0,-1,1768795080.0111084
1768795080018.921,1317.216117216117,,0,-1,1768795080.018921
1768795080026.7334,1317.216117216117,,0,-1,1768795080.0267334
1768795080034.546,1315.7509157509155,,0,-1,1768795080.034546
1768795080042.3584,1314.2857142857142,,0,-1,1768795080.0423584
1768795080050.171,1315.018315018315,,0,-1,1768795080.050171
1768795080057.9834,1307.6923076923076,,0,-1,1768795080.0579834
1768795080065.796,1304.0293040293038,,0,-1,1768795080.065796
1768795080073.6084,1306.227106227106,,0,-1,1768795080.0736084
1768795080081.421,1309.89010989011,,0,-1,1768795080.081421
1768795080089.2334,1315.7509157509155,,0,-1,1768795080.0892334
1768795080097.046,1321.6117216117216,,0,-1,1768795080.097046
1768795080104.8584,1325.2747252747251,,0,-1,1768795080.1048584
1768795080112.671,1324.5421245421244,,0,-1,1768795080.112671
1768795080120.4834,1326.007326007326,,0,-1,1768795080.1204834
1768795080128.296,1324.5421245421244,,0,-1,1768795080.128296
1768795080136.1084,1322.3443223443223,,0,-1,1768795080.1361084
1768795080143.921,1328.937728937729,,0,-1,1768795080.143921
1768795080151.7334,1336.263736263736,,0,-1,1768795080.1517334
1768795080159.546,1349.4505494505493,,0,-1,1768795080.159546
1768795080167.3584,1373.6263736263736,,0,-1,1768795080.1673584
1768795080175.171,1400.7326007326003,,0,-1,1768795080.175171
1768795080182.9834,1435.164835164835,,0,-1,1768795080.1829834
1768795080190.796,1469.5970695970695,,0,-1,1768795080.190796
1768795080198.6084,1509.89010989011,,0,-1,1768795080.1986084
1768795080206.421,1549.4505494505493,,0,-1,1768795080.206421
1768795080214.2334,1583.8827838827838,,0,-1,1768795080.2142334
1768795080222.046,1615.3846153846152,,0,-1,1768795080.222046
1768795080229.8584,1644.688644688645,,0,-1,1768795080.2298584
1768795080237.671,1675.4578754578754,,0,-1,1768795080.237671
1768795080245.4834,1701.8315018315018,,0,-1,1768795080.2454834
1768795080253.296,1723.0769230769229,,0,-1,1768795080.253296
1768795080261.1084,1742.124542124542,,0,-1,1768795080.2611084
1768795080268.921,1752.3809523809523,,0,-1,1768795080.268921
1768795080276.7334,1760.4395604395604,,0,-1,1768795080.2767334
1768795080284.546,1767.7655677655675,,0,-1,1768795080.284546
1768795080292.3584,1767.032967032967,,0,-1,1768795080.2923584
1768795080300.171,1766.3003663003662,,0,-1,1768795080.300171
1768795080307.9834,1764.8351648351647,,0,-1,1768795080.3079834
1768795080315.796,1758.241758241758,,0,-1,1768795080.315796
1768795080323.6084,1756.7765567765566,,0,-1,1768795080.3236084
1768795080331.421,1754.5787545787546,,0,-1,1768795080.331421
1768795080339.2334,1750.18315018315,,0,-1,1768795080.3392334
1768795080347.046,1750.9157509157508,,0,-1,1768795080.347046
1768795080354.8584,1754.5787545787546,,0,-1,1768795080.3548584
1768795080362.671,1758.241758241758,,0,-1,1768795080.362671
1768795080370.4834,1763.3699633699632,,0,-1,1768795080.3704834
1768795080378.296,1767.032967032967,,0,-1,1768795080.378296
1768795080386.1084,1764.102564102564,,0,-1,1768795080.3861084
1768795080393.921,1758.974358974359,,0,-1,1768795080.393921
1768795080401.7334,1753.113553113553,,0,-1,1768795080.4017334
1768795080409.546,1743.5897435897434,,0,-1,1768795080.409546
1768795080417.3584,1726.739926739927,,0,-1,1768795080.4173584
1768795080425.171,1710.6227106227104,,0,-1,1768795080.425171
1768795080432.9834,1688.6446886446886,,0,-1,1768795080.4329834
1768795080440.796,1669.5970695970695,,0,-1,1768795080.440796
1768795080448.6084,1648.3516483516482,,0,-1,1768795080.4486084
1768795080456.421,1627.106227106227,,0,-1,1768795080.456421
1768795080464.2334,1609.5238095238094,,0,-1,1768795080.4642334
1768795080472.046,1588.278388278388,,0,-1,1768795080.472046
1768795080479.8584,1572.8937728937728,,0,-1,1768795080.4798584
1768795080487.671,1567.7655677655678,,0,-1,1768795080.487671
1768795080495.4834,1562.6373626373625,,0,-1,1768795080.4954834
1768795080503.296,1563.3699633699632,,0,-1,1768795080.503296
1768795080511.1084,1558.241758241758,,0,-1,1768795080.5111084
1768795080518.921,1562.6373626373625,,0,-1,1768795080.518921
1768795080526.7334,1564.102564102564,,0,-1,1768795080.5267334
1768795080534.546,1569.230769230769,,0,-1,1768795080.534546
1768795080542.3584,1574.3589743589744,,0,-1,1768795080.5423584
1768795080550.171,1582.4175824175825,,0,-1,1768795080.550171
1768795080557.9834,1581.6849816849815,,0,-1,1768795080.5579834
1768795080565.796,1579.4871794871794,,0,-1,1768795080.565796
1768795080573.6084,1580.2197802197802,,0,-1,1768795080.5736084
1768795080581.421,1576.5567765567764,,0,-1,1768795080.581421
1768795080589.2334,1569.9633699633698,,0,-1,1768795080.5892334
1768795080597.046,1565.5677655677655,,0,-1,1768795080.597046
1768795080604.8584,1556.7765567765566,,0,-1,1768795080.6048584
1768795080612.671,1546.5201465201465,,0,-1,1768795080.612671
1768795080620.4834,1538.4615384615383,,0,-1,1768795080.6204834
1768795080628.296,1526.739926739927,,0,-1,1768795080.628296
1768795080636.1084,1517.216117216117,,1,3,1768795080.6361084
1768795080643.921,1499.6336996336995,,1,3,1768795080.643921
1768795080651.7334,1487.9120879120878,,1,3,1768795080.6517334
1768795080659.546,1479.120879120879,,1,3,1768795080.659546
1768795080667.3584,1470.3296703296703,,1,3,1768795080.6673584
1768795080675.171,1465.9340659340658,,1,3,1768795080.675171
1768795080682.9834,1464.4688644688645,,1,3,1768795080.6829834
1768795080690.796,1457.875457875458,,1,3,1768795080.690796
1768795080698.6084,1449.8168498168498,,1,3,1768795080.6986084
1768795080706.421,1443.956043956044,,1,3,1768795080.706421
1768795080714.2334,1431.5018315018317,,1,3,1768795080.7142334
1768795080722.046,1422.7106227106226,,1,3,1768795080.722046
1768795080729.8584,1409.5238095238094,,1,3,1768795080.7298584
1768795080737.671,1400.0,,1,3,1768795080.737671
1768795080745.4834,1391.941391941392,,1,3,1768795080.7454834
1768795080753.296,1380.2197802197802,,1,3,1768795080.753296
1768795080761.1084,1371.428571428571,,1,3,1768795080.7611084
1768795080768.921,1360.4395604395604,,1,3,1768795080.768921
1768795080776.7334,1348.7179487179487,,1,3,1768795080.7767334
1768795080784.546,1344.3223443223442,,1,3,1768795080.784546
1768795080792.3584,1337.7289377289376,,1,3,1768795080.7923584
1768795080800.171,1339.194139194139,,1,3,1768795080.800171
1768795080807.9834,1336.263736263736,,1,3,1768795080.8079834
1768795080815.796,1336.9963369963368,,1,3,1768795080.815796
1768795080823.6084,1330.4029304029302,,1,3,1768795080.8236084
1768795080831.421,1331.135531135531,,1,3,1768795080.831421
1768795080839.2334,1325.2747252747251,,1,3,1768795080.8392334
1768795080847.046,1325.2747252747251,,1,3,1768795080.847046
1768795080854.8584,1321.6117216117216,,1,3,1768795080.8548584
1768795080862.671,1320.8791208791208,,1,3,1768795080.862671
1768795080870.4834,1315.018315018315,,1,3,1768795080.8704834
1768795080878.296,1314.2857142857142,,1,3,1768795080.878296
1768795080886.1084,1309.1575091575091,,1,3,1768795080.8861084
1768795080893.921,1310.6227106227104,,1,3,1768795080.893921
1768795080901.7334,1306.9597069597069,,1,3,1768795080.9017334
1768795080909.546,1309.1575091575091,,1,3,1768795080.909546
1768795080917.3584,1305.4945054945051,,1,3,1768795080.9173584
1768795080925.171,1304.0293040293038,,1,3,1768795080.925171
1768795080932.9834,1299.6336996336995,,1,3,1768795080.9329834
1768795080940.796,1295.2380952380952,,1,3,1768795080.940796
1768795080948.6084,1290.8424908424909,,1,3,1768795080.9486084
1768795080956.421,1287.9120879120878,,1,3,1768795080.956421
1768795080964.2334,1283.5164835164835,,1,3,1768795080.9642334
1768795080972.046,1282.051282051282,,1,3,1768795080.972046
1768795080979.8584,1280.5860805860805,,1,3,1768795080.9798584
1768795080987.671,1277.6556776556777,,1,3,1768795080.987671
1768795080995.4834,1278.3882783882782,,1,3,1768795080.9954834
1768795081003.296,1275.4578754578754,,1,3,1768795081.003296
1768795081011.1084,1277.6556776556777,,1,3,1768795081.0111084
1768795081018.921,1275.4578754578754,,1,3,1768795081.018921
1768795081026.7334,1276.923076923077,,1,3,1768795081.0267334
1768795081034.546,1269.5970695970695,,1,3,1768795081.034546
1768795081042.3584,1263.7362637362637,,1,3,1768795081.0423584
1768795081050.171,1252.014652014652,,1,3,1768795081.050171
1768795081057.9834,1248.3516483516482,,1,3,1768795081.0579834
1768795081065.796,1242.4908424908424,,1,3,1768795081.065796
1768795081073.6084,1238.095238095238,,1,3,1768795081.0736084
1768795081081.421,1229.3040293040292,,1,3,1768795081.081421
1768795081089.2334,1224.175824175824,,1,3,1768795081.0892334
1768795081097.046,1216.8498168498168,,1,3,1768795081.097046
1768795081104.8584,1210.2564102564102,,1,3,1768795081.1048584
1768795081112.671,1205.128205128205,,1,3,1768795081.112671
1768795081120.4834,1200.7326007326008,,1,3,1768795081.1204834
1768795081128.296,1199.2673992673992,,1,3,1768795081.128296
1768795081136.1084,1202.197802197802,,1,3,1768795081.1361084
1768795081143.921,1202.9304029304028,,1,3,1768795081.143921
1768795081151.7334,1208.058608058608,,1,3,1768795081.1517334
1768795081159.546,1207.3260073260074,,1,3,1768795081.159546
1768795081167.3584,1213.1868131868132,,1,3,1768795081.1673584
1768795081175.171,1217.5824175824175,,1,3,1768795081.175171
1768795081182.9834,1227.106227106227,,1,3,1768795081.1829834
1768795081190.796,1233.6996336996335,,1,3,1768795081.190796
1768795081198.6084,1246.8864468864467,,1,3,1768795081.1986084
1768795081206.421,1254.9450549450548,,1,3,1768795081.206421
1768795081214.2334,1268.131868131868,,1,3,1768795081.2142334
1768795081222.046,1279.120879120879,,1,3,1768795081.222046
1768795081229.8584,1301.098901098901,,1,3,1768795081.2298584
1768795081237.671,1331.135531135531,,1,3,1768795081.237671
1768795081245.4834,1363.3699633699632,,1,3,1768795081.2454834
1768795081253.296,1403.6630036630036,,1,3,1768795081.253296
1768795081261.1084,1435.8974358974358,,1,3,1768795081.2611084
1768795081268.921,1470.3296703296703,,1,3,1768795081.268921
1768795081276.7334,1494.5054945054944,,1,3,1768795081.2767334
1768795081284.546,1517.216117216117,,1,3,1768795081.284546
1768795081292.3584,1531.135531135531,,1,3,1768795081.2923584
1768795081300.171,1550.18315018315,,1,3,1768795081.300171
1768795081307.9834,1564.8351648351647,,1,3,1768795081.3079834
1768795081315.796,1580.2197802197802,,1,3,1768795081.315796
1768795081323.6084,1592.6739926739926,,1,3,1768795081.3236084
1768795081331.421,1600.7326007326003,,1,3,1768795081.331421
1768795081339.2334,1600.7326007326003,,1,3,1768795081.3392334
1768795081347.046,1601.4652014652013,,1,3,1768795081.347046
1768795081354.8584,1594.8717948717947,,1,3,1768795081.3548584
1768795081362.671,1591.2087912087911,,1,3,1768795081.362671
1768795081370.4834,1583.8827838827838,,1,3,1768795081.3704834
1768795081378.296,1580.9523809523807,,1,3,1768795081.378296
1768795081386.1084,1574.3589743589744,,1,3,1768795081.3861084
1768795081393.921,1566.3003663003662,,1,3,1768795081.393921
1768795081401.7334,1567.7655677655678,,1,3,1768795081.4017334
1768795081409.546,1564.102564102564,,1,3,1768795081.409546
1768795081417.3584,1564.102564102564,,1,3,1768795081.4173584
1768795081425.171,1557.5091575091574,,1,3,1768795081.425171
1768795081432.9834,1553.113553113553,,1,3,1768795081.4329834
1768795081440.796,1544.3223443223442,,1,3,1768795081.440796
1768795081448.6084,1538.4615384615383,,1,3,1768795081.4486084
1768795081456.421,1526.007326007326,,1,3,1768795081.456421
1768795081464.2334,1515.7509157509155,,1,3,1768795081.4642334
1768795081472.046,1500.3663003663005,,1,3,1768795081.472046
1768795081479.8584,1491.5750915750914,,1,3,1768795081.4798584
1768795081487.671,1479.8534798534797,,1,3,1768795081.487671
1768795081495.4834,1469.5970695970695,,1,3,1768795081.4954834
1768795081503.296,1453.479853479853,,1,3,1768795081.503296
1768795081511.1084,1443.956043956044,,1,3,1768795081.5111084
1768795081518.921,1434.4322344322345,,1,3,1768795081.518921
1768795081526.7334,1426.3736263736262,,1,3,1768795081.5267334
1768795081534.546,1423.4432234432234,,1,3,1768795081.534546
1768795081542.3584,1416.8498168498168,,1,3,1768795081.5423584
1768795081550.171,1417.5824175824175,,1,3,1768795081.550171
1768795081557.9834,1419.7802197802198,,1,3,1768795081.5579834
1768795081565.796,1429.3040293040292,,1,3,1768795081.565796
1768795081573.6084,1435.164835164835,,1,3,1768795081.5736084
1768795081581.421,1446.153846153846,,1,3,1768795081.581421
1768795081589.2334,1452.7472527472526,,1,3,1768795081.5892334
1768795081597.046,1460.805860805861,,1,3,1768795081.597046
1768795081604.8584,1462.2710622710622,,1,3,1768795081.6048584
1768795081612.671,1463.003663003663,,1,3,1768795081.612671
1768795081620.4834,1459.3406593406592,,1,3,1768795081.6204834
1768795081628.296,1454.9450549450548,,1,3,1768795081.628296
1768795081636.1084,1446.8864468864467,,1,3,1768795081.6361084
1768795081643.921,1433.6996336996335,,1,3,1768795081.643921
1768795081651.7334,1419.7802197802198,,1,3,1768795081.6517334
1768795081659.546,1412.4542124542124,,1,3,1768795081.659546
1768795081667.3584,1402.197802197802,,1,3,1768795081.6673584
1768795081675.171,1397.069597069597,,1,3,1768795081.675171
1768795081682.9834,1386.8131868131868,,1,3,1768795081.6829834
1768795081690.796,1378.7545787545787,,1,3,1768795081.690796
1768795081698.6084,1367.7655677655678,,1,3,1768795081.6986084
1768795081706.421,1357.5091575091574,,1,3,1768795081.706421
1768795081714.2334,1352.3809523809523,,1,3,1768795081.7142334
1768795081722.046,1342.124542124542,,1,3,1768795081.722046
1768795081729.8584,1335.5311355311355,,1,3,1768795081.7298584
1768795081737.671,1327.4725274725274,,1,3,1768795081.737671
1768795081745.4834,1328.2051282051282,,1,3,1768795081.7454834
1768795081753.296,1326.739926739927,,1,3,1768795081.753296
1768795081761.1084,1328.937728937729,,1,3,1768795081.7611084
1768795081768.921,1323.8095238095236,,1,3,1768795081.768921
1768795081776.7334,1314.2857142857142,,1,3,1768795081.7767334
1768795081784.546,1301.098901098901,,1,3,1768795081.784546
1768795081792.3584,1288.6446886446886,,1,3,1768795081.7923584
1768795081800.171,1284.9816849816848,,1,3,1768795081.800171
1768795081807.9834,1279.120879120879,,1,3,1768795081.8079834
1768795081815.796,1279.120879120879,,1,3,1768795081.815796
1768795081823.6084,1271.062271062271,,1,3,1768795081.8236084
1768795081831.421,1269.5970695970695,,1,3,1768795081.831421
1768795081839.2334,1263.7362637362637,,1,3,1768795081.8392334
1768795081847.046,1265.2014652014652,,1,3,1768795081.847046
1768795081854.8584,1264.4688644688645,,1,3,1768795081.8548584
1768795081862.671,1268.8644688644688,,1,3,1768795081.862671
1768795081870.4834,1269.5970695970695,,1,3,1768795081.8704834
1768795081878.296,1275.4578754578754,,1,3,1768795081.878296
1768795081886.1084,1276.190476190476,,1,3,1768795081.8861084
1768795081893.921,1280.5860805860805,,1,3,1768795081.893921
1768795081901.7334,1279.120879120879,,1,3,1768795081.9017334
1768795081909.546,1275.4578754578754,,1,3,1768795081.909546
1768795081917.3584,1267.3992673992673,,1,3,1768795081.9173584
1768795081925.171,1256.4102564102564,,1,3,1768795081.925171
1768795081932.9834,1248.3516483516482,,1,3,1768795081.9329834
1768795081940.796,1234.4322344322345,,1,3,1768795081.940796
1768795081948.6084,1228.5714285714284,,1,3,1768795081.9486084
1768795081956.421,1219.7802197802198,,1,3,1768795081.956421
1768795081964.2334,1216.117216117216,,1,3,1768795081.9642334
1768795081972.046,1212.4542124542124,,1,3,1768795081.972046
1768795081979.8584,1216.8498168498168,,1,3,1768795081.9798584
1768795081987.671,1216.117216117216,,1,3,1768795081.987671
1768795081995.4834,1216.8498168498168,,1,3,1768795081.9954834
1768795082003.296,1218.3150183150185,,1,3,1768795082.003296
1768795082011.1084,1216.8498168498168,,1,3,1768795082.0111084
1768795082018.921,1220.5128205128203,,1,3,1768795082.018921
1768795082026.7334,1219.047619047619,,1,3,1768795082.0267334
1768795082034.546,1217.5824175824175,,1,3,1768795082.034546
1768795082042.3584,1216.117216117216,,1,3,1768795082.0423584
1768795082050.171,1213.1868131868132,,1,3,1768795082.050171
1768795082057.9834,1205.128205128205,,1,3,1768795082.0579834
1768795082065.796,1198.5347985347985,,1,3,1768795082.065796
1768795082073.6084,1197.8021978021975,,1,3,1768795082.0736084
1768795082081.421,1192.6739926739926,,1,3,1768795082.081421
1768795082089.2334,1191.941391941392,,1,3,1768795082.0892334
1768795082097.046,1192.6739926739926,,1,3,1768795082.097046
1768795082104.8584,1189.7435897435896,,1,3,1768795082.1048584
1768795082112.671,1190.4761904761904,,1,3,1768795082.112671
1768795082120.4834,1191.941391941392,,1,3,1768795082.1204834
1768795082128.296,1189.0109890109889,,1,3,1768795082.128296
1768795082136.1084,1192.6739926739926,,1,3,1768795082.1361084
1768795082143.921,1191.941391941392,,1,3,1768795082.143921
1768795082151.7334,1192.6739926739926,,1,3,1768795082.1517334
1768795082159.546,1196.3369963369962,,1,3,1768795082.159546
1768795082167.3584,1196.3369963369962,,1,3,1768795082.1673584
1768795082175.171,1199.2673992673992,,1,3,1768795082.175171
1768795082182.9834,1195.6043956043954,,1,3,1768795082.1829834
1768795082190.796,1195.6043956043954,,1,3,1768795082.190796
1768795082198.6084,1191.941391941392,,1,3,1768795082.1986084
1768795082206.421,1191.941391941392,,1,3,1768795082.206421
1768795082214.2334,1189.7435897435896,,1,3,1768795082.2142334
1768795082222.046,1197.069597069597,,1,3,1768795082.222046
1768795082229.8584,1205.8608058608058,,1,3,1768795082.2298584
1768795082237.671,1218.3150183150185,,1,3,1768795082.237671
1768795082245.4834,1233.6996336996335,,1,3,1768795082.2454834
1768795082253.296,1255.6776556776556,,1,3,1768795082.253296
1768795082261.1084,1279.120879120879,,1,3,1768795082.2611084
1768795082268.921,1297.4358974358977,,1,3,1768795082.268921
1768795082276.7334,1313.5531135531137,,1,3,1768795082.2767334
1768795082284.546,1323.076923076923,,1,3,1768795082.284546
1768795082292.3584,1331.8681318681315,,1,3,1768795082.2923584
1768795082300.171,1341.3919413919414,,1,3,1768795082.300171
1768795082307.9834,1349.4505494505493,,1,3,1768795082.3079834
1768795082315.796,1361.904761904762,,1,3,1768795082.315796
1768795082323.6084,1367.7655677655678,,1,3,1768795082.3236084
1768795082331.421,1375.091575091575,,1,3,1768795082.331421
1768795082339.2334,1380.952380952381,,1,3,1768795082.3392334
1768795082347.046,1388.278388278388,,1,3,1768795082.347046
1768795082354.8584,1388.278388278388,,1,3,1768795082.3548584
1768795082362.671,1386.080586080586,,1,3,1768795082.362671
1768795082370.4834,1379.4871794871794,,1,3,1768795082.3704834
1768795082378.296,1374.3589743589744,,1,3,1768795082.378296
1768795082386.1084,1366.3003663003662,,1,3,1768795082.3861084
1768795082393.921,1364.102564102564,,1,3,1768795082.393921
1768795082401.7334,1358.974358974359,,1,3,1768795082.4017334
1768795082409.546,1358.241758241758,,1,3,1768795082.409546
1768795082417.3584,1356.043956043956,,1,3,1768795082.4173584
1768795082425.171,1353.113553113553,,1,3,1768795082.425171
1768795082432.9834,1347.985347985348,,1,3,1768795082.4329834
1768795082440.796,1339.92673992674,,1,3,1768795082.440796
1768795082448.6084,1329.6703296703297,,1,3,1768795082.4486084
1768795082456.421,1320.14652014652,,1,3,1768795082.456421
1768795082464.2334,1310.6227106227104,,1,3,1768795082.4642334
1768795082472.046,1300.3663003663005,,1,3,1768795082.472046
1768795082479.8584,1295.970695970696,,1,3,1768795082.4798584
1768795082487.671,1294.5054945054944,,1,3,1768795082.487671
1768795082495.4834,1295.2380952380952,,1,3,1768795082.4954834
1768795082503.296,1301.098901098901,,1,3,1768795082.503296
1768795082511.1084,1305.4945054945051,,1,3,1768795082.5111084
1768795082518.921,1315.7509157509155,,1,3,1768795082.518921
1768795082526.7334,1323.076923076923,,1,3,1768795082.5267334
1768795082534.546,1331.8681318681315,,1,3,1768795082.534546
1768795082542.3584,1334.7985347985348,,1,3,1768795082.5423584
1768795082550.171,1341.3919413919414,,1,3,1768795082.550171
1768795082557.9834,1343.5897435897434,,1,3,1768795082.5579834
1768795082565.796,1345.054945054945,,1,3,1768795082.565796
1768795082573.6084,1345.054945054945,,1,3,1768795082.5736084
1768795082581.421,1344.3223443223442,,1,3,1768795082.581421
1768795082589.2334,1338.4615384615383,,1,3,1768795082.5892334
1768795082597.046,1335.5311355311355,,1,3,1768795082.597046
1768795082604.8584,1326.007326007326,,1,3,1768795082.6048584
1768795082612.671,1320.8791208791208,,1,3,1768795082.612671
1768795082620.4834,1309.1575091575091,,1,3,1768795082.6204834
1768795082628.296,1305.4945054945051,,1,3,1768795082.628296
1768795082636.1084,1298.168498168498,,1,3,1768795082.6361084
1768795082643.921,1296.7032967032967,,1,3,1768795082.643921
1768795082651.7334,1291.5750915750914,,1,3,1768795082.6517334
1768795082659.546,1292.3076923076922,,1,3,1768795082.659546
1768795082667.3584,1287.9120879120878,,1,3,1768795082.6673584
1768795082675.171,1285.7142857142856,,1,3,1768795082.675171
1768795082682.9834,1284.2490842490845,,1,3,1768795082.6829834
1768795082690.796,1276.923076923077,,1,3,1768795082.690796
1768795082698.6084,1271.062271062271,,1,3,1768795082.6986084
1768795082706.421,1259.3406593406592,,1,3,1768795082.706421
1768795082714.2334,1253.479853479853,,1,3,1768795082.7142334
1768795082722.046,1244.688644688645,,1,3,1768795082.722046
1768795082729.8584,1238.8278388278388,,1,3,1768795082.7298584
1768795082737.671,1238.8278388278388,,1,3,1768795082.737671
1768795082745.4834,1238.8278388278388,,1,3,1768795082.7454834
1768795082753.296,1245.4212454212454,,1,3,1768795082.753296
1768795082761.1084,1247.6190476190477,,1,3,1768795082.7611084
1768795082768.921,1246.8864468864467,,1,3,1768795082.768921
1768795082776.7334,1251.2820512820513,,1,3,1768795082.7767334
1768795082784.546,1249.084249084249,,1,3,1768795082.784546
1768795082792.3584,1251.2820512820513,,1,3,1768795082.7923584
1768795082800.171,1251.2820512820513,,1,3,1768795082.800171
1768795082807.9834,1250.5494505494505,,1,3,1768795082.8079834
1768795082815.796,1254.212454212454,,1,3,1768795082.815796
1768795082823.6084,1249.8168498168498,,1,3,1768795082.8236084
1768795082831.421,1248.3516483516482,,1,3,1768795082.831421
1768795082839.2334,1243.956043956044,,1,3,1768795082.8392334
1768795082847.046,1236.6300366300366,,1,3,1768795082.847046
1768795082854.8584,1233.6996336996335,,1,3,1768795082.8548584
1768795082862.671,1227.106227106227,,1,3,1768795082.862671
1768795082870.4834,1223.4432234432234,,1,3,1768795082.8704834
1768795082878.296,1221.9780219780218,,1,3,1768795082.878296
1768795082886.1084,1217.5824175824175,,1,3,1768795082.8861084
1768795082893.921,1214.6520146520145,,1,3,1768795082.893921
1768795082901.7334,1216.8498168498168,,1,3,1768795082.9017334
1768795082909.546,1216.8498168498168,,1,3,1768795082.909546
1768795082917.3584,1216.8498168498168,,1,3,1768795082.9173584
1768795082925.171,1220.5128205128203,,1,3,1768795082.925171
1768795082932.9834,1217.5824175824175,,1,3,1768795082.9329834
1768795082940.796,1218.3150183150185,,1,3,1768795082.940796
1768795082948.6084,1222.7106227106226,,1,3,1768795082.9486084
1768795082956.421,1222.7106227106226,,1,3,1768795082.956421
1768795082964.2334,1221.9780219780218,,1,3,1768795082.9642334
1768795082972.046,1223.4432234432234,,1,3,1768795082.972046
1768795082979.8584,1220.5128205128203,,1,3,1768795082.9798584
1768795082987.671,1219.047619047619,,1,3,1768795082.987671
1768795082995.4834,1219.7802197802198,,1,3,1768795082.9954834
1768795083003.296,1218.3150183150185,,1,3,1768795083.003296
1768795083011.1084,1215.3846153846152,,1,3,1768795083.0111084
1768795083018.921,1215.3846153846152,,1,3,1768795083.018921
1768795083026.7334,1218.3150183150185,,1,3,1768795083.0267334
1768795083034.546,1216.8498168498168,,0,-1,1768795083.034546
1768795083042.3584,1215.3846153846152,,0,-1,1768795083.0423584
1768795083050.171,1219.7802197802198,,0,-1,1768795083.050171
1768795083057.9834,1221.245421245421,,0,-1,1768795083.0579834
1768795083065.796,1227.8388278388277,,0,-1,1768795083.065796
1768795083073.6084,1234.4322344322345,,0,-1,1768795083.0736084
1768795083081.421,1235.164835164835,,0,-1,1768795083.081421
1768795083089.2334,1232.967032967033,,0,-1,1768795083.0892334
1768795083097.046,1231.5018315018317,,0,-1,1768795083.097046
1768795083104.8584,1228.5714285714284,,0,-1,1768795083.1048584
1768795083112.671,1219.7802197802198,,0,-1,1768795083.112671
1768795083120.4834,1214.6520146520145,,0,-1,1768795083.1204834
1768795083128.296,1207.3260073260074,,0,-1,1768795083.128296
1768795083136.1084,1204.3956043956043,,0,-1,1768795083.1361084
1768795083143.921,1201.4652014652013,,0,-1,1768795083.143921
1768795083151.7334,1196.3369963369962,,0,-1,1768795083.1517334
1768795083159.546,1195.6043956043954,,0,-1,1768795083.159546
1768795083167.3584,1198.5347985347985,,0,-1,1768795083.1673584
1768795083175.171,1208.058608058608,,0,-1,1768795083.175171
1768795083182.9834,1222.7106227106226,,0,-1,1768795083.1829834
1768795083190.796,1235.8974358974358,,0,-1,1768795083.190796
1768795083198.6084,1255.6776556776556,,0,-1,1768795083.1986084
1768795083206.421,1276.190476190476,,0,-1,1768795083.206421
1768795083214.2334,1293.040293040293,,0,-1,1768795083.2142334
1768795083222.046,1308.4249084249084,,0,-1,1768795083.222046
1768795083229.8584,1316.4835164835165,,0,-1,1768795083.2298584
1768795083237.671,1323.8095238095236,,0,-1,1768795083.237671
1768795083245.4834,1325.2747252747251,,0,-1,1768795083.2454834
1768795083253.296,1321.6117216117216,,0,-1,1768795083.253296
1768795083261.1084,1323.8095238095236,,0,-1,1768795083.2611084
1768795083268.921,1321.6117216117216,,0,-1,1768795083.268921
1768795083276.7334,1326.007326007326,,0,-1,1768795083.2767334
1768795083284.546,1327.4725274725274,,0,-1,1768795083.284546
1768795083292.3584,1328.2051282051282,,0,-1,1768795083.2923584
1768795083300.171,1329.6703296703297,,0,-1,1768795083.300171
1768795083307.9834,1325.2747252747251,,0,-1,1768795083.3079834
1768795083315.796,1317.9487179487178,,0,-1,1768795083.315796
1768795083323.6084,1311.3553113553112,,0,-1,1768795083.3236084
1768795083331.421,1310.6227106227104,,0,-1,1768795083.331421
1768795083339.2334,1309.1575091575091,,0,-1,1768795083.3392334
1768795083347.046,1307.6923076923076,,0,-1,1768795083.347046
1768795083354.8584,1307.6923076923076,,0,-1,1768795083.3548584
1768795083362.671,1306.9597069597069,,0,-1,1768795083.362671
1768795083370.4834,1307.6923076923076,,0,-1,1768795083.3704834
1768795083378.296,1309.89010989011,,0,-1,1768795083.378296
1768795083386.1084,1311.3553113553112,,0,-1,1768795083.3861084
1768795083393.921,1309.1575091575091,,0,-1,1768795083.393921
1768795083401.7334,1309.89010989011,,0,-1,1768795083.4017334
1768795083409.546,1309.1575091575091,,0,-1,1768795083.409546
1768795083417.3584,1305.4945054945051,,0,-1,1768795083.4173584
1768795083425.171,1307.6923076923076,,0,-1,1768795083.425171
1768795083432.9834,1301.8315018315018,,0,-1,1768795083.4329834
1768795083440.796,1301.098901098901,,0,-1,1768795083.440796
1768795083448.6084,1299.6336996336995,,0,-1,1768795083.4486084
1768795083456.421,1298.9010989010987,,0,-1,1768795083.456421
1768795083464.2334,1301.098901098901,,0,-1,1768795083.4642334
1768795083472.046,1300.3663003663005,,0,-1,1768795083.472046
1768795083479.8584,1306.9597069597069,,0,-1,1768795083.4798584
1768795083487.671,1310.6227106227104,,0,-1,1768795083.487671
1768795083495.4834,1317.9487179487178,,0,-1,1768795083.4954834
1768795083503.296,1317.216117216117,,0,-1,1768795083.503296
1768795083511.1084,1320.14652014652,,0,-1,1768795083.5111084
1768795083518.921,1317.216117216117,,0,-1,1768795083.518921
1768795083526.7334,1318.6813186813183,,0,-1,1768795083.5267334
1768795083534.546,1315.7509157509155,,0,-1,1768795083.534546
1768795083542.3584,1315.7509157509155,,0,-1,1768795083.5423584
1768795083550.171,1306.227106227106,,0,-1,1768795083.550171
1768795083557.9834,1302.5641025641023,,0,-1,1768795083.5579834
1768795083565.796,1297.4358974358977,,0,-1,1768795083.565796
1768795083573.6084,1294.5054945054944,,0,-1,1768795083.5736084
1768795083581.421,1296.7032967032967,,0,-1,1768795083.581421
1768795083589.2334,1295.2380952380952,,0,-1,1768795083.5892334
1768795083597.046,1298.168498168498,,0,-1,1768795083.597046
1768795083604.8584,1298.9010989010987,,0,-1,1768795083.6048584
1768795083612.671,1306.227106227106,,0,-1,1768795083.612671
1768795083620.4834,1309.1575091575091,,0,-1,1768795083.6204834
1768795083628.296,1312.087912087912,,0,-1,1768795083.628296
1768795083636.1084,1310.6227106227104,,0,-1,1768795083.6361084
1768795083643.921,1309.89010989011,,0,-1,1768795083.643921
1768795083651.7334,1309.1575091575091,,0,-1,1768795083.6517334
1768795083659.546,1305.4945054945051,,0,-1,1768795083.659546
1768795083667.3584,1300.3663003663005,,0,-1,1768795083.6673584
1768795083675.171,1298.168498168498,,0,-1,1768795083.675171
1768795083682.9834,1299.6336996336995,,0,-1,1768795083.6829834
1768795083690.796,1301.098901098901,,0,-1,1768795083.690796
1768795083698.6084,1301.8315018315018,,0,-1,1768795083.6986084
1768795083706.421,1303.2967032967033,,0,-1,1768795083.706421
1768795083714.2334,1304.7619047619046,,0,-1,1768795083.7142334
1768795083722.046,1304.0293040293038,,0,-1,1768795083.722046
1768795083729.8584,1299.6336996336995,,0,-1,1768795083.7298584
1768795083737.671,1295.2380952380952,,0,-1,1768795083.737671
1768795083745.4834,1291.5750915750914,,0,-1,1768795083.7454834
1768795083753.296,1287.179487179487,,0,-1,1768795083.753296
1768795083761.1084,1280.5860805860805,,0,-1,1768795083.7611084
1768795083768.921,1278.3882783882782,,0,-1,1768795083.768921
1768795083776.7334,1269.5970695970695,,0,-1,1768795083.7767334
1768795083784.546,1265.2014652014652,,0,-1,1768795083.784546
1768795083792.3584,1256.4102564102564,,0,-1,1768795083.7923584
1768795083800.171,1255.6776556776556,,0,-1,1768795083.800171
1768795083807.9834,1254.212454212454,,0,-1,1768795083.8079834
1768795083815.796,1256.4102564102564,,0,-1,1768795083.815796
1768795083823.6084,1252.014652014652,,0,-1,1768795083.8236084
1768795083831.421,1253.479853479853,,0,-1,1768795083.831421
1768795083839.2334,1254.9450549450548,,0,-1,1768795083.8392334
1768795083847.046,1260.805860805861,,0,-1,1768795083.847046
1768795083854.8584,1264.4688644688645,,0,-1,1768795083.8548584
1768795083862.671,1271.062271062271,,0,-1,1768795083.862671
1768795083870.4834,1273.992673992674,,0,-1,1768795083.8704834
1768795083878.296,1275.4578754578754,,0,-1,1768795083.878296
1768795083886.1084,1275.4578754578754,,0,-1,1768795083.8861084
1768795083893.921,1274.7252747252746,,0,-1,1768795083.893921
1768795083901.7334,1273.992673992674,,0,-1,1768795083.9017334
1768795083909.546,1277.6556776556777,,0,-1,1768795083.909546
1768795083917.3584,1276.190476190476,,0,-1,1768795083.9173584
1768795083925.171,1274.7252747252746,,0,-1,1768795083.925171
1768795083932.9834,1276.190476190476,,0,-1,1768795083.9329834
1768795083940.796,1271.062271062271,,0,-1,1768795083.940796
1768795083948.6084,1268.131868131868,,0,-1,1768795083.9486084
1768795083956.421,1258.6080586080586,,0,-1,1768795083.956421
1768795083964.2334,1253.479853479853,,0,-1,1768795083.9642334
1768795083972.046,1246.153846153846,,0,-1,1768795083.972046
1768795083979.8584,1244.688644688645,,0,-1,1768795083.9798584
1768795083987.671,1241.7582417582416,,0,-1,1768795083.987671
1768795083995.4834,1240.29304029304,,0,-1,1768795083.9954834
1768795084003.296,1243.956043956044,,0,-1,1768795084.003296
1768795084011.1084,1243.956043956044,,0,-1,1768795084.0111084
1768795084018.921,1248.3516483516482,,0,-1,1768795084.018921
1768795084026.7334,1247.6190476190477,,0,-1,1768795084.0267334
1768795084034.546,1251.2820512820513,,0,-1,1768795084.034546
1768795084042.3584,1252.014652014652,,0,-1,1768795084.0423584
1768795084050.171,1250.5494505494505,,0,-1,1768795084.050171
1768795084057.9834,1252.7472527472526,,0,-1,1768795084.0579834
1768795084065.796,1254.9450549450548,,0,-1,1768795084.065796
1768795084073.6084,1254.9450549450548,,0,-1,1768795084.0736084
1768795084081.421,1257.142857142857,,0,-1,1768795084.081421
1768795084089.2334,1263.003663003663,,0,-1,1768795084.0892334
1768795084097.046,1265.9340659340658,,0,-1,1768795084.097046
1768795084104.8584,1272.5274725274724,,0,-1,1768795084.1048584
1768795084112.671,1278.3882783882782,,0,-1,1768795084.112671
1768795084120.4834,1283.5164835164835,,0,-1,1768795084.1204834
1768795084128.296,1290.8424908424909,,0,-1,1768795084.128296
