Shimmer_6815_Timestamp_Unix_CAL,Shimmer_6815_PPG_A13_CAL,Unnamed: 2,inhale,inhale_id,epoch_sec
1768788580629.6997,24.908424908424905,,1,0,1768788580.6296997
1768788580637.5122,98.90109890109888,,1,0,1768788580.6375122
1768788580645.3247,196.33699633699632,,1,0,1768788580.6453247
1768788580653.1372,296.7032967032967,,1,0,1768788580.6531372
1768788580660.9497,400.7326007326007,,1,0,1768788580.6609497
1768788580668.7622,495.970695970696,,1,0,1768788580.6687622
1768788580676.5747,585.3479853479853,,1,0,1768788580.6765747
1768788580684.3872,664.4688644688645,,1,0,1768788580.6843872
1768788580692.1997,728.9377289377289,,1,0,1768788580.6921997
1768788580700.0122,789.7435897435897,,1,0,1768788580.7000122
1768788580707.8247,838.8278388278387,,1,0,1768788580.7078247
1768788580715.6372,884.2490842490841,,1,0,1768788580.7156372
1768788580723.4497,926.007326007326,,1,0,1768788580.7234497
1768788580731.2622,953.8461538461538,,1,0,1768788580.7312622
1768788580739.0747,979.4871794871794,,1,0,1768788580.7390747
1768788580746.8872,1003.6630036630036,,1,0,1768788580.7468872
1768788580754.6997,1020.5128205128204,,1,0,1768788580.7546997
1768788580762.5122,1038.095238095238,,1,0,1768788580.7625122
1768788580770.3247,1050.5494505494505,,1,0,1768788580.7703247
1768788580778.1372,1056.4102564102564,,1,0,1768788580.7781372
1768788580785.9497,1063.003663003663,,1,0,1768788580.7859497
1768788580793.7622,1068.8644688644688,,1,0,1768788580.7937622
1768788580801.5747,1068.8644688644688,,1,0,1768788580.8015747
1768788580809.3872,1068.131868131868,,1,0,1768788580.8093872
1768788580817.1997,1068.8644688644688,,1,0,1768788580.8171997
1768788580825.0122,1065.2014652014652,,1,0,1768788580.8250122
1768788580832.8247,1065.2014652014652,,1,0,1768788580.8328247
1768788580840.6372,1070.3296703296703,,1,0,1768788580.8406372
1768788580848.4497,1073.992673992674,,1,0,1768788580.8484497
1768788580856.2622,1084.2490842490845,,1,0,1768788580.8562622
1768788580864.0747,1095.2380952380952,,1,0,1768788580.8640747
1768788580871.8872,1112.087912087912,,1,0,1768788580.8718872
1768788580879.6997,1134.7985347985348,,1,0,1768788580.8796997
1768788580887.5122,1153.8461538461538,,1,0,1768788580.8875122
1768788580895.3247,1178.021978021978,,1,0,1768788580.8953247
1768788580903.1372,1205.8608058608058,,1,0,1768788580.9031372
1768788580910.9497,1234.4322344322345,,1,0,1768788580.9109497
1768788580918.7622,1269.5970695970695,,1,0,1768788580.9187622
1768788580926.5747,1300.3663003663005,,1,0,1768788580.9265747
1768788580934.3872,1331.135531135531,,1,0,1768788580.9343872
1768788580942.1997,1361.1721611721612,,1,0,1768788580.9421997
1768788580950.0122,1383.150183150183,,1,0,1768788580.9500122
1768788580957.8247,1401.4652014652013,,1,0,1768788580.9578247
1768788580965.6372,1417.5824175824175,,1,0,1768788580.9656372
1768788580973.4497,1430.03663003663,,1,0,1768788580.9734497
1768788580981.2622,1439.5604395604394,,1,0,1768788580.9812622
1768788580989.0747,1446.153846153846,,1,0,1768788580.9890747
1768788580996.8872,1452.7472527472526,,1,0,1768788580.9968872
1768788581004.6997,1460.07326007326,,1,0,1768788581.0046997
1768788581012.5122,1463.7362637362637,,1,0,1768788581.0125122
1768788581020.3247,1462.2710622710622,,1,0,1768788581.0203247
1768788581028.1372,1461.5384615384614,,1,0,1768788581.0281372
1768788581035.9497,1460.805860805861,,1,0,1768788581.0359497
1768788581043.7622,1460.07326007326,,1,0,1768788581.0437622
1768788581051.5747,1463.003663003663,,1,0,1768788581.0515747
1768788581059.3872,1465.9340659340658,,0,-1,1768788581.0593872
1768788581067.1997,1468.131868131868,,0,-1,1768788581.0671997
1768788581075.0122,1467.3992673992673,,0,-1,1768788581.0750122
1768788581082.8247,1468.131868131868,,0,-1,1768788581.0828247
1768788581090.6372,1468.8644688644688,,0,-1,1768788581.0906372
1768788581098.4497,1468.8644688644688,,0,-1,1768788581.0984497
1768788581106.2622,1471.7948717948716,,0,-1,1768788581.1062622
1768788581114.0747,1475.4578754578754,,0,-1,1768788581.1140747
1768788581121.8872,1479.120879120879,,0,-1,1768788581.1218872
1768788581129.6997,1481.3186813186812,,0,-1,1768788581.1296997
1768788581137.5122,1484.2490842490845,,0,-1,1768788581.1375122
1768788581145.3247,1484.2490842490845,,0,-1,1768788581.1453247
1768788581153.1372,1481.3186813186812,,0,-1,1768788581.1531372
1768788581160.9497,1473.260073260073,,0,-1,1768788581.1609497
1768788581168.7622,1467.3992673992673,,0,-1,1768788581.1687622
1768788581176.5747,1461.5384615384614,,0,-1,1768788581.1765747
1768788581184.3872,1453.479853479853,,0,-1,1768788581.1843872
1768788581192.1997,1443.956043956044,,0,-1,1768788581.1921997
1768788581200.0122,1438.095238095238,,0,-1,1768788581.2000122
1768788581207.8247,1434.4322344322345,,0,-1,1768788581.2078247
1768788581215.6372,1432.2344322344322,,0,-1,1768788581.2156372
1768788581223.4497,1432.2344322344322,,0,-1,1768788581.2234497
1768788581231.2622,1435.8974358974358,,0,-1,1768788581.2312622
1768788581239.0747,1443.2234432234432,,0,-1,1768788581.2390747
1768788581246.8872,1450.5494505494505,,0,-1,1768788581.2468872
1768788581254.6997,1457.142857142857,,0,-1,1768788581.2546997
1768788581262.5122,1463.7362637362637,,0,-1,1768788581.2625122
1768788581270.3247,1470.3296703296703,,0,-1,1768788581.2703247
1768788581278.1372,1471.7948717948716,,0,-1,1768788581.2781372
1768788581285.9497,1474.7252747252746,,0,-1,1768788581.2859497
1768788581293.7622,1474.7252747252746,,0,-1,1768788581.2937622
1768788581301.5747,1471.7948717948716,,0,-1,1768788581.3015747
1768788581309.3872,1463.7362637362637,,0,-1,1768788581.3093872
1768788581317.1997,1454.9450549450548,,0,-1,1768788581.3171997
1768788581325.0122,1449.8168498168498,,0,-1,1768788581.3250122
1768788581332.8247,1443.2234432234432,,0,-1,1768788581.3328247
1768788581340.6372,1436.6300366300366,,0,-1,1768788581.3406372
1768788581348.4497,1432.2344322344322,,0,-1,1768788581.3484497
1768788581356.2622,1429.3040293040292,,0,-1,1768788581.3562622
1768788581364.0747,1426.3736263736262,,0,-1,1768788581.3640747
1768788581371.8872,1422.7106227106226,,0,-1,1768788581.3718872
1768788581379.6997,1416.117216117216,,0,-1,1768788581.3796997
1768788581387.5122,1409.5238095238094,,0,-1,1768788581.3875122
1768788581395.3247,1400.7326007326003,,0,-1,1768788581.3953247
1768788581403.1372,1391.941391941392,,0,-1,1768788581.4031372
1768788581410.9497,1380.2197802197802,,0,-1,1768788581.4109497
1768788581418.7622,1366.3003663003662,,0,-1,1768788581.4187622
1768788581426.5747,1352.3809523809523,,0,-1,1768788581.4265747
1768788581434.3872,1341.3919413919414,,0,-1,1768788581.4343872
1768788581442.1997,1332.6007326007325,,0,-1,1768788581.4421997
1768788581450.0122,1326.739926739927,,0,-1,1768788581.4500122
1768788581457.8247,1324.5421245421244,,0,-1,1768788581.4578247
1768788581465.6372,1323.8095238095236,,0,-1,1768788581.4656372
1768788581473.4497,1323.076923076923,,0,-1,1768788581.4734497
1768788581481.2622,1324.5421245421244,,0,-1,1768788581.4812622
1768788581489.0747,1328.2051282051282,,0,-1,1768788581.4890747
1768788581496.8872,1328.937728937729,,0,-1,1768788581.4968872
1768788581504.6997,1328.937728937729,,0,-1,1768788581.5046997
1768788581512.5122,1326.007326007326,,0,-1,1768788581.5125122
1768788581520.3247,1321.6117216117216,,0,-1,1768788581.5203247
1768788581528.1372,1315.7509157509155,,0,-1,1768788581.5281372
1768788581535.9497,1309.89010989011,,0,-1,1768788581.5359497
1768788581543.7622,1304.0293040293038,,0,-1,1768788581.5437622
1768788581551.5747,1299.6336996336995,,0,-1,1768788581.5515747
1768788581559.3872,1296.7032967032967,,0,-1,1768788581.5593872
1768788581567.1997,1292.3076923076922,,0,-1,1768788581.5671997
1768788581575.0122,1289.3772893772891,,0,-1,1768788581.5750122
1768788581582.8247,1283.5164835164835,,0,-1,1768788581.5828247
1768788581590.6372,1275.4578754578754,,0,-1,1768788581.5906372
1768788581598.4497,1266.6666666666663,,0,-1,1768788581.5984497
1768788581606.2622,1260.07326007326,,0,-1,1768788581.6062622
1768788581614.0747,1254.9450549450548,,0,-1,1768788581.6140747
1768788581621.8872,1250.5494505494505,,0,-1,1768788581.6218872
1768788581629.6997,1246.8864468864467,,0,-1,1768788581.6296997
1768788581637.5122,1241.7582417582416,,0,-1,1768788581.6375122
1768788581645.3247,1237.362637362637,,0,-1,1768788581.6453247
1768788581653.1372,1235.164835164835,,0,-1,1768788581.6531372
1768788581660.9497,1236.6300366300366,,0,-1,1768788581.6609497
1768788581668.7622,1239.5604395604396,,0,-1,1768788581.6687622
1768788581676.5747,1242.4908424908424,,0,-1,1768788581.6765747
1768788581684.3872,1247.6190476190477,,0,-1,1768788581.6843872
1768788581692.1997,1252.014652014652,,0,-1,1768788581.6921997
1768788581700.0122,1257.875457875458,,0,-1,1768788581.7000122
1768788581707.8247,1263.003663003663,,0,-1,1768788581.7078247
1768788581715.6372,1271.062271062271,,0,-1,1768788581.7156372
1768788581723.4497,1282.7838827838827,,0,-1,1768788581.7234497
1768788581731.2622,1298.9010989010987,,0,-1,1768788581.7312622
1768788581739.0747,1320.8791208791208,,0,-1,1768788581.7390747
1768788581746.8872,1346.5201465201465,,0,-1,1768788581.7468872
1768788581754.6997,1375.091575091575,,0,-1,1768788581.7546997
1768788581762.5122,1404.3956043956043,,0,-1,1768788581.7625122
1768788581770.3247,1432.9670329670328,,0,-1,1768788581.7703247
1768788581778.1372,1461.5384615384614,,0,-1,1768788581.7781372
1768788581785.9497,1488.6446886446886,,0,-1,1768788581.7859497
1768788581793.7622,1516.4835164835165,,0,-1,1768788581.7937622
1768788581801.5747,1541.3919413919414,,0,-1,1768788581.8015747
1768788581809.3872,1561.9047619047617,,0,-1,1768788581.8093872
1768788581817.1997,1578.7545787545787,,0,-1,1768788581.8171997
1768788581825.0427,1588.278388278388,,0,-1,1768788581.8250427
1768788581832.8247,1591.2087912087911,,0,-1,1768788581.8328247
1768788581840.6372,1590.4761904761904,,0,-1,1768788581.8406372
1768788581848.4497,1586.8131868131868,,0,-1,1768788581.8484497
1768788581856.2622,1579.4871794871794,,0,-1,1768788581.8562622
1768788581864.0747,1573.6263736263736,,0,-1,1768788581.8640747
1768788581871.8872,1569.230769230769,,0,-1,1768788581.8718872
1768788581879.6997,1562.6373626373625,,0,-1,1768788581.8796997
1768788581887.5122,1555.311355311355,,0,-1,1768788581.8875122
1768788581895.3247,1552.3809523809523,,0,-1,1768788581.8953247
1768788581903.1372,1553.8461538461538,,0,-1,1768788581.9031372
1768788581910.9497,1560.4395604395604,,0,-1,1768788581.9109497
1768788581918.7622,1570.6959706959706,,0,-1,1768788581.9187622
1768788581926.5747,1576.5567765567764,,0,-1,1768788581.9265747
1768788581934.3872,1580.9523809523807,,0,-1,1768788581.9343872
1768788581942.1997,1587.545787545787,,0,-1,1768788581.9421997
1768788581950.0122,1587.545787545787,,0,-1,1768788581.9500122
1768788581957.8247,1582.4175824175825,,0,-1,1768788581.9578247
1768788581965.6372,1575.8241758241757,,0,-1,1768788581.9656372
1768788581973.4497,1566.3003663003662,,0,-1,1768788581.9734497
1768788581981.2622,1553.8461538461538,,0,-1,1768788581.9812622
1768788581989.0747,1541.3919413919414,,0,-1,1768788581.9890747
1768788581996.8872,1532.6007326007325,,0,-1,1768788581.9968872
1768788582004.6997,1522.3443223443223,,0,-1,1768788582.0046997
1768788582012.5122,1509.1575091575091,,0,-1,1768788582.0125122
1768788582020.3247,1500.3663003663005,,0,-1,1768788582.0203247
1768788582028.1372,1491.5750915750914,,0,-1,1768788582.0281372
1768788582035.9497,1482.7838827838827,,0,-1,1768788582.0359497
1768788582043.7622,1469.5970695970695,,0,-1,1768788582.0437622
1768788582051.5747,1461.5384615384614,,0,-1,1768788582.0515747
1768788582059.3872,1455.6776556776556,,0,-1,1768788582.0593872
1768788582067.1997,1450.5494505494505,,0,-1,1768788582.0671997
1768788582075.0122,1448.3516483516482,,0,-1,1768788582.0750122
1768788582082.8247,1446.8864468864467,,0,-1,1768788582.0828247
1768788582090.6372,1445.4212454212454,,0,-1,1768788582.0906372
1768788582098.4497,1441.0256410256409,,0,-1,1768788582.0984497
1768788582106.2622,1436.6300366300366,,0,-1,1768788582.1062622
1768788582114.0747,1434.4322344322345,,0,-1,1768788582.1140747
1768788582121.8872,1435.164835164835,,0,-1,1768788582.1218872
1768788582129.6997,1433.6996336996335,,0,-1,1768788582.1296997
1768788582137.5122,1437.362637362637,,0,-1,1768788582.1375122
1768788582145.3247,1435.8974358974358,,0,-1,1768788582.1453247
1768788582153.1372,1438.095238095238,,0,-1,1768788582.1531372
1768788582160.9497,1434.4322344322345,,0,-1,1768788582.1609497
1768788582168.7622,1424.175824175824,,0,-1,1768788582.1687622
1768788582176.5747,1411.7216117216117,,0,-1,1768788582.1765747
1768788582184.3872,1398.5347985347985,,0,-1,1768788582.1843872
1768788582192.1997,1386.080586080586,,0,-1,1768788582.1921997
1768788582200.0122,1375.091575091575,,0,-1,1768788582.2000122
1768788582207.8247,1370.6959706959706,,0,-1,1768788582.2078247
1768788582215.6372,1363.3699633699632,,0,-1,1768788582.2156372
1768788582223.4497,1352.3809523809523,,0,-1,1768788582.2234497
1768788582231.2622,1342.857142857143,,0,-1,1768788582.2312622
1768788582239.0747,1336.263736263736,,0,-1,1768788582.2390747
1768788582246.8872,1329.6703296703297,,0,-1,1768788582.2468872
1768788582254.6997,1328.937728937729,,0,-1,1768788582.2546997
1768788582262.5122,1328.937728937729,,0,-1,1768788582.2625122
1768788582270.3247,1326.739926739927,,0,-1,1768788582.2703247
1768788582278.1372,1323.076923076923,,0,-1,1768788582.2781372
1768788582285.9497,1322.3443223443223,,0,-1,1768788582.2859497
1768788582293.7622,1321.6117216117216,,0,-1,1768788582.2937622
1768788582301.5747,1317.9487179487178,,0,-1,1768788582.3015747
1768788582309.3872,1318.6813186813183,,0,-1,1768788582.3093872
1768788582317.1997,1322.3443223443223,,0,-1,1768788582.3171997
1768788582325.0122,1328.937728937729,,0,-1,1768788582.3250122
1768788582332.8247,1330.4029304029302,,0,-1,1768788582.3328247
1768788582340.6372,1327.4725274725274,,0,-1,1768788582.3406372
1768788582348.4497,1326.007326007326,,0,-1,1768788582.3484497
1768788582356.2622,1326.007326007326,,0,-1,1768788582.3562622
1768788582364.0747,1323.8095238095236,,0,-1,1768788582.3640747
1768788582371.8872,1321.6117216117216,,0,-1,1768788582.3718872
1768788582379.6997,1314.2857142857142,,0,-1,1768788582.3796997
1768788582387.5122,1301.8315018315018,,0,-1,1768788582.3875122
1768788582395.3247,1292.3076923076922,,0,-1,1768788582.3953247
1768788582403.1372,1279.8534798534797,,0,-1,1768788582.4031372
1768788582410.9497,1267.3992673992673,,0,-1,1768788582.4109497
1768788582418.7622,1259.3406593406592,,0,-1,1768788582.4187622
1768788582426.5747,1252.014652014652,,0,-1,1768788582.4265747
1768788582434.3872,1252.7472527472526,,0,-1,1768788582.4343872
1768788582442.1997,1248.3516483516482,,0,-1,1768788582.4421997
1768788582450.0122,1244.688644688645,,0,-1,1768788582.4500122
1768788582457.8247,1241.0256410256409,,0,-1,1768788582.4578247
1768788582465.6372,1231.5018315018317,,0,-1,1768788582.4656372
1768788582473.4497,1227.8388278388277,,0,-1,1768788582.4734497
1768788582481.2622,1221.9780219780218,,0,-1,1768788582.4812622
1768788582489.0747,1224.175824175824,,0,-1,1768788582.4890747
1768788582496.8872,1221.9780219780218,,0,-1,1768788582.4968872
1768788582504.6997,1224.9084249084249,,0,-1,1768788582.5046997
1768788582512.5122,1223.4432234432234,,0,-1,1768788582.5125122
1768788582520.3247,1224.9084249084249,,0,-1,1768788582.5203247
1768788582528.1372,1224.9084249084249,,0,-1,1768788582.5281372
1768788582535.9497,1227.8388278388277,,0,-1,1768788582.5359497
1768788582543.7622,1224.9084249084249,,0,-1,1768788582.5437622
1768788582551.5747,1223.4432234432234,,0,-1,1768788582.5515747
1768788582559.3872,1219.047619047619,,0,-1,1768788582.5593872
1768788582567.1997,1221.9780219780218,,0,-1,1768788582.5671997
1768788582575.0122,1220.5128205128203,,0,-1,1768788582.5750122
1768788582582.8247,1227.8388278388277,,0,-1,1768788582.5828247
1768788582590.6372,1230.7692307692307,,0,-1,1768788582.5906372
1768788582598.4497,1238.095238095238,,0,-1,1768788582.5984497
1768788582606.2622,1243.956043956044,,0,-1,1768788582.6062622
1768788582614.0747,1252.014652014652,,0,-1,1768788582.6140747
1768788582621.8872,1265.2014652014652,,0,-1,1768788582.6218872
1768788582629.6997,1276.923076923077,,0,-1,1768788582.6296997
1768788582637.5122,1289.3772893772891,,0,-1,1768788582.6375122
1768788582645.3247,1307.6923076923076,,0,-1,1768788582.6453247
1768788582653.1372,1321.6117216117216,,0,-1,1768788582.6531372
1768788582660.9497,1339.194139194139,,0,-1,1768788582.6609497
1768788582668.7622,1353.8461538461538,,0,-1,1768788582.6687622
1768788582676.5747,1374.3589743589744,,0,-1,1768788582.6765747
1768788582684.3872,1390.4761904761904,,0,-1,1768788582.6843872
1768788582692.1997,1414.6520146520145,,0,-1,1768788582.6921997
1768788582700.0122,1431.5018315018317,,0,-1,1768788582.7000122
1768788582707.8247,1446.8864468864467,,0,-1,1768788582.7078247
1768788582715.6372,1457.142857142857,,0,-1,1768788582.7156372
1768788582723.4497,1465.201465201465,,0,-1,1768788582.7234497
1768788582731.2622,1474.7252747252746,,0,-1,1768788582.7312622
1768788582739.0747,1476.190476190476,,0,-1,1768788582.7390747
1768788582746.8872,1480.5860805860805,,0,-1,1768788582.7468872
1768788582754.6997,1479.120879120879,,0,-1,1768788582.7546997
1768788582762.5122,1480.5860805860805,,0,-1,1768788582.7625122
1768788582770.3247,1480.5860805860805,,0,-1,1768788582.7703247
1768788582778.1372,1479.120879120879,,0,-1,1768788582.7781372
1768788582785.9497,1473.992673992674,,0,-1,1768788582.7859497
1768788582793.7622,1471.7948717948716,,0,-1,1768788582.7937622
1768788582801.5747,1473.992673992674,,0,-1,1768788582.8015747
1768788582809.3872,1482.051282051282,,0,-1,1768788582.8093872
1768788582817.1997,1490.10989010989,,0,-1,1768788582.8171997
1768788582825.0122,1504.7619047619046,,0,-1,1768788582.8250122
1768788582832.8247,1510.6227106227104,,0,-1,1768788582.8328247
1768788582840.6372,1515.018315018315,,0,-1,1768788582.8406372
1768788582848.4497,1509.1575091575091,,0,-1,1768788582.8484497
1768788582856.2622,1504.0293040293038,,0,-1,1768788582.8562622
1768788582864.0747,1491.5750915750914,,0,-1,1768788582.8640747
1768788582871.8872,1484.2490842490845,,0,-1,1768788582.8718872
1768788582879.6997,1478.3882783882782,,0,-1,1768788582.8796997
1768788582887.5122,1474.7252747252746,,0,-1,1768788582.8875122
1768788582895.3247,1476.190476190476,,0,-1,1768788582.8953247
1768788582903.1372,1475.4578754578754,,0,-1,1768788582.9031372
1768788582910.9497,1476.190476190476,,0,-1,1768788582.9109497
1768788582918.7622,1477.6556776556777,,0,-1,1768788582.9187622
1768788582926.5747,1473.992673992674,,0,-1,1768788582.9265747
1768788582934.3872,1469.5970695970695,,0,-1,1768788582.9343872
1768788582942.1997,1461.5384615384614,,0,-1,1768788582.9421997
1768788582950.0122,1446.153846153846,,0,-1,1768788582.9500122
1768788582957.8247,1435.164835164835,,0,-1,1768788582.9578247
1768788582965.6372,1429.3040293040292,,0,-1,1768788582.9656372
1768788582973.4497,1419.7802197802198,,0,-1,1768788582.9734497
1768788582981.2622,1411.7216117216117,,0,-1,1768788582.9812622
1768788582989.0747,1405.128205128205,,0,-1,1768788582.9890747
1768788582996.8872,1398.5347985347985,,0,-1,1768788582.9968872
1768788583004.6997,1387.5457875457876,,0,-1,1768788583.0046997
1768788583012.5122,1378.7545787545787,,0,-1,1768788583.0125122
1768788583020.3247,1375.091575091575,,0,-1,1768788583.0203247
1768788583028.1372,1371.428571428571,,0,-1,1768788583.0281372
1768788583035.9497,1367.032967032967,,0,-1,1768788583.0359497
1768788583043.7622,1364.102564102564,,0,-1,1768788583.0437622
1768788583051.5747,1365.5677655677655,,0,-1,1768788583.0515747
1768788583059.3872,1367.032967032967,,0,-1,1768788583.0593872
1768788583067.1997,1366.3003663003662,,0,-1,1768788583.0671997
1768788583075.0122,1364.8351648351647,,0,-1,1768788583.0750122
1768788583082.8247,1361.904761904762,,0,-1,1768788583.0828247
1768788583090.6372,1356.043956043956,,0,-1,1768788583.0906372
1768788583098.4497,1350.18315018315,,0,-1,1768788583.0984497
1768788583106.2622,1345.054945054945,,0,-1,1768788583.1062622
1768788583114.0747,1340.6593406593406,,0,-1,1768788583.1140747
1768788583121.8872,1336.263736263736,,0,-1,1768788583.1218872
1768788583129.6997,1334.7985347985348,,0,-1,1768788583.1296997
1768788583137.5122,1331.135531135531,,0,-1,1768788583.1375122
1768788583145.3247,1327.4725274725274,,0,-1,1768788583.1453247
1768788583153.1372,1320.8791208791208,,0,-1,1768788583.1531372
1768788583160.9497,1312.087912087912,,0,-1,1768788583.1609497
1768788583168.7622,1304.0293040293038,,0,-1,1768788583.1687622
1768788583176.5747,1298.168498168498,,0,-1,1768788583.1765747
1768788583184.3872,1292.3076923076922,,0,-1,1768788583.1843872
1768788583192.1997,1283.5164835164835,,0,-1,1768788583.1921997
1768788583200.0122,1276.923076923077,,0,-1,1768788583.2000122
1768788583207.8247,1269.5970695970695,,0,-1,1768788583.2078247
1768788583215.6372,1263.003663003663,,0,-1,1768788583.2156372
1768788583223.4497,1260.07326007326,,0,-1,1768788583.2234497
1768788583231.2622,1252.014652014652,,0,-1,1768788583.2312622
1768788583239.0747,1243.2234432234432,,0,-1,1768788583.2390747
1768788583246.8872,1235.164835164835,,0,-1,1768788583.2468872
1768788583254.6997,1224.9084249084249,,0,-1,1768788583.2546997
1768788583262.5122,1212.4542124542124,,0,-1,1768788583.2625122
1768788583270.3247,1197.8021978021975,,0,-1,1768788583.2703247
1768788583278.1372,1189.0109890109889,,0,-1,1768788583.2781372
1768788583285.9497,1186.080586080586,,0,-1,1768788583.2859497
1768788583293.7622,1189.0109890109889,,0,-1,1768788583.2937622
1768788583301.5747,1197.8021978021975,,0,-1,1768788583.3015747
1768788583309.3872,1205.8608058608058,,0,-1,1768788583.3093872
1768788583317.1997,1210.2564102564102,,0,-1,1768788583.3171997
1768788583325.0122,1209.5238095238094,,0,-1,1768788583.3250122
1768788583332.8247,1208.058608058608,,0,-1,1768788583.3328247
1768788583340.6372,1208.058608058608,,0,-1,1768788583.3406372
1768788583348.4497,1209.5238095238094,,0,-1,1768788583.3484497
1768788583356.2622,1212.4542124542124,,0,-1,1768788583.3562622
1768788583364.0747,1211.7216117216117,,0,-1,1768788583.3640747
1768788583371.8872,1208.058608058608,,0,-1,1768788583.3718872
1768788583379.6997,1203.6630036630036,,0,-1,1768788583.3796997
1768788583387.5122,1198.5347985347985,,0,-1,1768788583.3875122
1768788583395.3247,1196.3369963369962,,0,-1,1768788583.3953247
1768788583403.1372,1194.1391941391942,,0,-1,1768788583.4031372
1768788583410.9497,1196.3369963369962,,0,-1,1768788583.4109497
1768788583418.7622,1199.2673992673992,,0,-1,1768788583.4187622
1768788583426.5747,1201.4652014652013,,0,-1,1768788583.4265747
1768788583434.3872,1200.7326007326008,,0,-1,1768788583.4343872
1768788583442.1997,1197.069597069597,,0,-1,1768788583.4421997
1768788583450.0122,1191.2087912087911,,0,-1,1768788583.4500122
1768788583457.8247,1183.150183150183,,0,-1,1768788583.4578247
1768788583465.6372,1176.5567765567764,,0,-1,1768788583.4656372
1768788583473.4497,1172.161172161172,,0,-1,1768788583.4734497
1768788583481.2622,1167.7655677655678,,0,-1,1768788583.4812622
1768788583489.0747,1161.1721611721612,,0,-1,1768788583.4890747
1768788583496.8872,1154.5787545787546,,0,-1,1768788583.4968872
1768788583504.6997,1149.4505494505493,,0,-1,1768788583.5046997
1768788583512.5122,1146.5201465201465,,0,-1,1768788583.5125122
1768788583520.3247,1145.7875457875457,,0,-1,1768788583.5203247
1768788583528.1372,1142.857142857143,,0,-1,1768788583.5281372
1768788583535.9497,1139.92673992674,,0,-1,1768788583.5359497
1768788583543.7622,1136.9963369963368,,0,-1,1768788583.5437622
1768788583551.5747,1131.8681318681315,,0,-1,1768788583.5515747
1768788583559.3872,1127.4725274725274,,0,-1,1768788583.5593872
1768788583567.1997,1125.2747252747251,,0,-1,1768788583.5671997
1768788583575.0122,1126.007326007326,,0,-1,1768788583.5750122
1768788583582.8247,1126.739926739927,,0,-1,1768788583.5828247
1768788583590.6372,1128.937728937729,,0,-1,1768788583.5906372
1768788583598.4497,1132.6007326007325,,0,-1,1768788583.5984497
1768788583606.2622,1140.6593406593406,,0,-1,1768788583.6062622
1768788583614.0747,1147.985347985348,,0,-1,1768788583.6140747
1768788583621.8872,1156.043956043956,,0,-1,1768788583.6218872
1768788583629.6997,1164.8351648351647,,0,-1,1768788583.6296997
1768788583637.5122,1175.8241758241757,,0,-1,1768788583.6375122
1768788583645.3247,1191.2087912087911,,0,-1,1768788583.6453247
1768788583653.1372,1206.5934065934066,,0,-1,1768788583.6531372
1768788583660.9497,1221.245421245421,,0,-1,1768788583.6609497
1768788583668.7622,1232.2344322344322,,0,-1,1768788583.6687622
1768788583676.5747,1241.7582417582416,,0,-1,1768788583.6765747
1768788583684.3872,1247.6190476190477,,0,-1,1768788583.6843872
1768788583692.1997,1249.084249084249,,0,-1,1768788583.6921997
1768788583700.0122,1251.2820512820513,,0,-1,1768788583.7000122
1768788583707.8247,1257.142857142857,,0,-1,1768788583.7078247
1768788583715.6372,1260.805860805861,,0,-1,1768788583.7156372
1768788583723.4497,1267.3992673992673,,0,-1,1768788583.7234497
1768788583731.2622,1274.7252747252746,,0,-1,1768788583.7312622
1768788583739.0747,1282.051282051282,,0,-1,1768788583.7390747
1768788583746.8872,1288.6446886446886,,0,-1,1768788583.7468872
1768788583754.6997,1293.7728937728937,,0,-1,1768788583.7546997
1768788583762.5122,1295.2380952380952,,0,-1,1768788583.7625122
1768788583770.3247,1293.7728937728937,,0,-1,1768788583.7703247
1768788583778.1372,1290.8424908424909,,0,-1,1768788583.7781372
1768788583785.9497,1287.9120879120878,,0,-1,1768788583.7859497
1768788583793.7622,1288.6446886446886,,0,-1,1768788583.7937622
1768788583801.5747,1289.3772893772891,,0,-1,1768788583.8015747
1768788583809.3872,1290.8424908424909,,0,-1,1768788583.8093872
1768788583817.1997,1293.7728937728937,,0,-1,1768788583.8171997
1768788583825.0122,1296.7032967032967,,0,-1,1768788583.8250122
1768788583832.8247,1296.7032967032967,,0,-1,1768788583.8328247
1768788583840.6372,1292.3076923076922,,0,-1,1768788583.8406372
1768788583848.4497,1287.179487179487,,0,-1,1768788583.8484497
1768788583856.2622,1283.5164835164835,,0,-1,1768788583.8562622
1768788583864.0747,1277.6556776556777,,0,-1,1768788583.8640747
1768788583871.8872,1271.062271062271,,0,-1,1768788583.8718872
1768788583879.6997,1263.7362637362637,,0,-1,1768788583.8796997
1768788583887.5122,1257.875457875458,,0,-1,1768788583.8875122
1768788583895.3247,1255.6776556776556,,0,-1,1768788583.8953247
1768788583903.1372,1252.014652014652,,0,-1,1768788583.9031372
1768788583910.9497,1252.7472527472526,,0,-1,1768788583.9109497
1768788583918.7622,1257.875457875458,,0,-1,1768788583.9187622
1768788583926.5747,1261.5384615384614,,0,-1,1768788583.9265747
1768788583934.3872,1264.4688644688645,,0,-1,1768788583.9343872
1768788583942.1997,1263.003663003663,,0,-1,1768788583.9421997
1768788583950.0122,1261.5384615384614,,0,-1,1768788583.9500122
1768788583957.8247,1257.875457875458,,0,-1,1768788583.9578247
1768788583965.6372,1250.5494505494505,,0,-1,1768788583.9656372
1768788583973.4497,1241.0256410256409,,0,-1,1768788583.9734497
1768788583981.2622,1232.2344322344322,,0,-1,1768788583.9812622
1768788583989.0747,1224.9084249084249,,0,-1,1768788583.9890747
1768788583996.8872,1219.7802197802198,,0,-1,1768788583.9968872
1768788584004.6997,1216.117216117216,,0,-1,1768788584.0046997
1768788584012.5122,1218.3150183150185,,0,-1,1768788584.0125122
1768788584020.3247,1222.7106227106226,,0,-1,1768788584.0203247
1768788584028.1372,1227.8388278388277,,0,-1,1768788584.0281372
1768788584035.9497,1229.3040293040292,,0,-1,1768788584.0359497
1768788584043.7622,1230.7692307692307,,0,-1,1768788584.0437622
1768788584051.5747,1228.5714285714284,,0,-1,1768788584.0515747
1768788584059.3872,1229.3040293040292,,0,-1,1768788584.0593872
1768788584067.1997,1232.2344322344322,,0,-1,1768788584.0671997
1768788584075.0122,1237.362637362637,,0,-1,1768788584.0750122
1768788584082.8247,1243.956043956044,,0,-1,1768788584.0828247
1768788584090.6372,1243.956043956044,,0,-1,1768788584.0906372
1768788584098.4497,1241.0256410256409,,0,-1,1768788584.0984497
1768788584106.2622,1238.095238095238,,0,-1,1768788584.1062622
1768788584114.0747,1239.5604395604396,,0,-1,1768788584.1140747
1768788584121.8872,1241.0256410256409,,0,-1,1768788584.1218872
1768788584129.6997,1238.8278388278388,,0,-1,1768788584.1296997
1768788584137.5122,1233.6996336996335,,0,-1,1768788584.1375122
1768788584145.3247,1227.8388278388277,,0,-1,1768788584.1453247
1768788584153.1372,1220.5128205128203,,0,-1,1768788584.1531372
1768788584160.9497,1212.4542124542124,,0,-1,1768788584.1609497
1768788584168.7622,1204.3956043956043,,0,-1,1768788584.1687622
1768788584176.5747,1197.8021978021975,,0,-1,1768788584.1765747
1768788584184.3872,1189.7435897435896,,0,-1,1768788584.1843872
1768788584192.1997,1180.952380952381,,0,-1,1768788584.1921997
1768788584200.0122,1175.8241758241757,,0,-1,1768788584.2000122
1768788584207.8247,1175.8241758241757,,0,-1,1768788584.2078247
1768788584215.6372,1172.8937728937728,,0,-1,1768788584.2156372
1768788584223.4497,1170.6959706959706,,0,-1,1768788584.2234497
1768788584231.2622,1172.161172161172,,0,-1,1768788584.2312622
1768788584239.0747,1171.428571428571,,0,-1,1768788584.2390747
1768788584246.8872,1168.4981684981683,,0,-1,1768788584.2468872
1768788584254.6997,1165.5677655677655,,0,-1,1768788584.2546997
1768788584262.5122,1160.4395604395604,,0,-1,1768788584.2625122
1768788584270.3247,1151.6483516483515,,0,-1,1768788584.2703247
1768788584278.1372,1144.3223443223442,,0,-1,1768788584.2781372
1768788584285.9497,1139.92673992674,,0,-1,1768788584.2859497
1768788584293.7622,1136.2637362637363,,0,-1,1768788584.2937622
1768788584301.5747,1138.4615384615383,,0,-1,1768788584.3015747
1768788584309.3872,1139.92673992674,,0,-1,1768788584.3093872
1768788584317.1997,1142.857142857143,,0,-1,1768788584.3171997
1768788584325.0122,1145.7875457875457,,0,-1,1768788584.3250122
1768788584332.8247,1148.7179487179487,,0,-1,1768788584.3328247
1768788584340.6372,1150.9157509157508,,0,-1,1768788584.3406372
1768788584348.4497,1154.5787545787546,,0,-1,1768788584.3484497
1768788584356.2622,1149.4505494505493,,0,-1,1768788584.3562622
1768788584364.0747,1143.5897435897434,,0,-1,1768788584.3640747
1768788584371.8872,1135.5311355311355,,0,-1,1768788584.3718872
1768788584379.6997,1128.937728937729,,0,-1,1768788584.3796997
1768788584387.5122,1123.8095238095236,,0,-1,1768788584.3875122
1768788584395.3247,1116.4835164835165,,0,-1,1768788584.3953247
1768788584403.1372,1113.5531135531137,,0,-1,1768788584.4031372
1768788584410.9497,1106.9597069597069,,0,-1,1768788584.4109497
1768788584418.7622,1104.7619047619046,,0,-1,1768788584.4187622
1768788584426.5747,1104.7619047619046,,0,-1,1768788584.4265747
1768788584434.3872,1101.8315018315018,,0,-1,1768788584.4343872
1768788584442.1997,1101.098901098901,,0,-1,1768788584.4421997
1768788584450.0122,1099.6336996336995,,0,-1,1768788584.4500122
1768788584457.8247,1101.8315018315018,,0,-1,1768788584.4578247
1768788584465.6372,1104.029304029304,,0,-1,1768788584.4656372
1768788584473.4497,1109.1575091575091,,0,-1,1768788584.4734497
1768788584481.2622,1107.6923076923076,,0,-1,1768788584.4812622
1768788584489.0747,1106.9597069597069,,0,-1,1768788584.4890747
1768788584496.8872,1108.4249084249084,,0,-1,1768788584.4968872
1768788584504.6997,1109.1575091575091,,0,-1,1768788584.5046997
1768788584512.5122,1112.087912087912,,0,-1,1768788584.5125122
1768788584520.3247,1119.4139194139193,,0,-1,1768788584.5203247
1768788584528.1372,1123.8095238095236,,0,-1,1768788584.5281372
1768788584535.9497,1134.065934065934,,0,-1,1768788584.5359497
1768788584543.7622,1145.054945054945,,0,-1,1768788584.5437622
1768788584551.5747,1148.7179487179487,,0,-1,1768788584.5515747
1768788584559.3872,1152.3809523809523,,0,-1,1768788584.5593872
1768788584567.1997,1148.7179487179487,,0,-1,1768788584.5671997
1768788584575.0122,1147.2527472527472,,0,-1,1768788584.5750122
1768788584582.8247,1142.124542124542,,0,-1,1768788584.5828247
1768788584590.6372,1134.7985347985348,,0,-1,1768788584.5906372
1768788584598.4497,1128.937728937729,,0,-1,1768788584.5984497
1768788584606.2622,1119.4139194139193,,0,-1,1768788584.6062622
1768788584614.0747,1113.5531135531137,,0,-1,1768788584.6140747
1768788584621.8872,1103.2967032967033,,0,-1,1768788584.6218872
1768788584629.6997,1098.168498168498,,0,-1,1768788584.6296997
1768788584637.5122,1095.970695970696,,0,-1,1768788584.6375122
1768788584645.3247,1093.7728937728937,,0,-1,1768788584.6453247
1768788584653.1372,1100.3663003663005,,0,-1,1768788584.6531372
1768788584660.9497,1104.029304029304,,0,-1,1768788584.6609497
1768788584668.7622,1114.2857142857142,,0,-1,1768788584.6687622
1768788584676.5747,1119.4139194139193,,0,-1,1768788584.6765747
1768788584684.3872,1128.937728937729,,0,-1,1768788584.6843872
1768788584692.1997,1135.5311355311355,,0,-1,1768788584.6921997
1768788584700.0122,1145.054945054945,,0,-1,1768788584.7000122
1768788584707.8247,1145.054945054945,,0,-1,1768788584.7078247
1768788584715.6372,1151.6483516483515,,0,-1,1768788584.7156372
1768788584723.4497,1156.043956043956,,0,-1,1768788584.7234497
1768788584731.2622,1165.5677655677655,,0,-1,1768788584.7312622
1768788584739.0747,1167.7655677655678,,0,-1,1768788584.7390747
1768788584746.8872,1175.0915750915751,,0,-1,1768788584.7468872
1768788584754.6997,1179.4871794871794,,0,-1,1768788584.7546997
1768788584762.5122,1189.0109890109889,,0,-1,1768788584.7625122
1768788584770.3247,1196.3369963369962,,0,-1,1768788584.7703247
1768788584778.1372,1206.5934065934066,,0,-1,1768788584.7781372
1768788584785.9497,1211.7216117216117,,0,-1,1768788584.7859497
1768788584793.7622,1214.6520146520145,,0,-1,1768788584.7937622
1768788584801.5747,1215.3846153846152,,0,-1,1768788584.8015747
1768788584809.3872,1216.8498168498168,,0,-1,1768788584.8093872
1768788584817.1997,1216.8498168498168,,0,-1,1768788584.8171997
1768788584825.0122,1216.8498168498168,,0,-1,1768788584.8250122
1768788584832.8247,1224.175824175824,,0,-1,1768788584.8328247
1768788584840.6372,1228.5714285714284,,0,-1,1768788584.8406372
1768788584848.4497,1230.03663003663,,0,-1,1768788584.8484497
1768788584856.2622,1233.6996336996335,,0,-1,1768788584.8562622
1768788584864.0747,1231.5018315018317,,0,-1,1768788584.8640747
1768788584871.8872,1231.5018315018317,,0,-1,1768788584.8718872
1768788584879.6997,1226.3736263736264,,0,-1,1768788584.8796997
1768788584887.5122,1220.5128205128203,,1,1,1768788584.8875122
1768788584895.3247,1219.7802197802198,,1,1,1768788584.8953247
1768788584903.1372,1217.5824175824175,,1,1,1768788584.9031372
1768788584910.9497,1221.245421245421,,1,1,1768788584.9109497
1768788584918.7622,1221.9780219780218,,1,1,1768788584.9187622
1768788584926.5747,1225.6410256410256,,1,1,1768788584.9265747
1768788584934.3872,1224.9084249084249,,1,1,1768788584.9343872
1768788584942.1997,1228.5714285714284,,1,1,1768788584.9421997
1768788584950.0122,1228.5714285714284,,1,1,1768788584.9500122
1768788584957.8247,1232.967032967033,,1,1,1768788584.9578247
1768788584965.6372,1233.6996336996335,,1,1,1768788584.9656372
1768788584973.4497,1230.7692307692307,,1,1,1768788584.9734497
1768788584981.2622,1233.6996336996335,,1,1,1768788584.9812622
1768788584989.0747,1234.4322344322345,,1,1,1768788584.9890747
1768788584996.8872,1234.4322344322345,,1,1,1768788584.9968872
1768788585004.6997,1236.6300366300366,,1,1,1768788585.0046997
1768788585012.5122,1236.6300366300366,,1,1,1768788585.0125122
1768788585020.3247,1243.2234432234432,,1,1,1768788585.0203247
1768788585028.1372,1244.688644688645,,1,1,1768788585.0281372
1768788585035.9497,1250.5494505494505,,1,1,1768788585.0359497
1768788585043.7622,1251.2820512820513,,1,1,1768788585.0437622
1768788585051.5747,1257.142857142857,,1,1,1768788585.0515747
1768788585059.3872,1260.07326007326,,1,1,1768788585.0593872
1768788585067.1997,1257.142857142857,,1,1,1768788585.0671997
1768788585075.0122,1258.6080586080586,,1,1,1768788585.0750122
1768788585082.8247,1257.142857142857,,1,1,1768788585.0828247
1768788585090.6372,1252.014652014652,,1,1,1768788585.0906372
1768788585098.4497,1247.6190476190477,,1,1,1768788585.0984497
1768788585106.2622,1241.7582417582416,,1,1,1768788585.1062622
1768788585114.0747,1243.2234432234432,,1,1,1768788585.1140747
1768788585121.8872,1241.0256410256409,,1,1,1768788585.1218872
1768788585129.6997,1240.29304029304,,1,1,1768788585.1296997
1768788585137.5122,1243.2234432234432,,1,1,1768788585.1375122
1768788585145.3247,1241.7582417582416,,1,1,1768788585.1453247
1768788585153.1372,1237.362637362637,,1,1,1768788585.1531372
1768788585160.9497,1238.095238095238,,1,1,1768788585.1609497
1768788585168.7622,1234.4322344322345,,1,1,1768788585.1687622
1768788585176.5747,1236.6300366300366,,1,1,1768788585.1765747
1768788585184.3872,1239.5604395604396,,1,1,1768788585.1843872
1768788585192.1997,1238.8278388278388,,1,1,1768788585.1921997
1768788585200.0122,1238.8278388278388,,1,1,1768788585.2000122
1768788585207.8247,1239.5604395604396,,1,1,1768788585.2078247
1768788585215.6372,1234.4322344322345,,1,1,1768788585.2156372
1768788585223.4497,1227.106227106227,,1,1,1768788585.2234497
1768788585231.2622,1221.9780219780218,,1,1,1768788585.2312622
1768788585239.0747,1218.3150183150185,,1,1,1768788585.2390747
1768788585246.8872,1209.5238095238094,,1,1,1768788585.2468872
1768788585254.6997,1206.5934065934066,,1,1,1768788585.2546997
1768788585262.5122,1206.5934065934066,,1,1,1768788585.2625122
1768788585270.3247,1210.989010989011,,1,1,1768788585.2703247
1768788585278.1372,1216.8498168498168,,1,1,1768788585.2781372
1768788585285.9497,1220.5128205128203,,1,1,1768788585.2859497
1768788585293.7622,1223.4432234432234,,1,1,1768788585.2937622
1768788585301.5747,1228.5714285714284,,1,1,1768788585.3015747
1768788585309.3872,1235.164835164835,,1,1,1768788585.3093872
1768788585317.1997,1233.6996336996335,,1,1,1768788585.3171997
1768788585325.0122,1232.967032967033,,1,1,1768788585.3250122
1768788585332.8247,1234.4322344322345,,1,1,1768788585.3328247
1768788585340.6372,1231.5018315018317,,1,1,1768788585.3406372
1768788585348.4497,1230.7692307692307,,1,1,1768788585.3484497
1768788585356.2622,1231.5018315018317,,1,1,1768788585.3562622
1768788585364.0747,1232.2344322344322,,1,1,1768788585.3640747
1768788585371.8872,1230.7692307692307,,1,1,1768788585.3718872
1768788585379.6997,1232.967032967033,,1,1,1768788585.3796997
1768788585387.5122,1228.5714285714284,,1,1,1768788585.3875122
1768788585395.3247,1221.245421245421,,1,1,1768788585.3953247
1768788585403.1372,1214.6520146520145,,1,1,1768788585.4031372
1768788585410.9497,1210.2564102564102,,1,1,1768788585.4109497
1768788585418.7622,1202.197802197802,,1,1,1768788585.4187622
1768788585426.5747,1189.7435897435896,,1,1,1768788585.4265747
1768788585434.3872,1178.7545787545787,,1,1,1768788585.4343872
1768788585442.1997,1172.8937728937728,,1,1,1768788585.4421997
1768788585450.0122,1165.5677655677655,,1,1,1768788585.4500122
1768788585457.8247,1162.6373626373625,,1,1,1768788585.4578247
1768788585465.6372,1163.3699633699632,,1,1,1768788585.4656372
1768788585473.4497,1168.4981684981683,,1,1,1768788585.4734497
1768788585481.2622,1172.161172161172,,1,1,1768788585.4812622
1768788585489.0747,1178.021978021978,,1,1,1768788585.4890747
1768788585496.8872,1183.8827838827838,,1,1,1768788585.4968872
1768788585504.6997,1186.8131868131868,,1,1,1768788585.5046997
1768788585512.5122,1190.4761904761904,,1,1,1768788585.5125122
1768788585520.3247,1197.069597069597,,1,1,1768788585.5203247
1768788585528.1372,1202.197802197802,,1,1,1768788585.5281372
1768788585535.9497,1204.3956043956043,,1,1,1768788585.5359497
1768788585543.7622,1200.7326007326008,,1,1,1768788585.5437622
1768788585551.5747,1197.069597069597,,1,1,1768788585.5515747
1768788585559.3872,1197.069597069597,,1,1,1768788585.5593872
1768788585567.1997,1200.0,,1,1,1768788585.5671997
1768788585575.0122,1200.7326007326008,,1,1,1768788585.5750122
1768788585582.8247,1202.197802197802,,1,1,1768788585.5828247
1768788585590.6372,1204.3956043956043,,1,1,1768788585.5906372
1768788585598.4497,1207.3260073260074,,1,1,1768788585.5984497
1768788585606.2622,1208.058608058608,,1,1,1768788585.6062622
1768788585614.0747,1210.2564102564102,,1,1,1768788585.6140747
1768788585621.8872,1213.1868131868132,,1,1,1768788585.6218872
1768788585629.6997,1212.4542124542124,,1,1,1768788585.6296997
1768788585637.5122,1210.989010989011,,1,1,1768788585.6375122
1768788585645.3247,1205.8608058608058,,1,1,1768788585.6453247
1768788585653.1372,1199.2673992673992,,1,1,1768788585.6531372
1768788585660.9497,1193.4065934065934,,1,1,1768788585.6609497
1768788585668.7622,1191.2087912087911,,1,1,1768788585.6687622
1768788585676.5747,1191.941391941392,,1,1,1768788585.6765747
1768788585684.3872,1191.941391941392,,1,1,1768788585.6843872
1768788585692.1997,1189.0109890109889,,1,1,1768788585.6921997
1768788585700.0122,1183.8827838827838,,1,1,1768788585.7000122
1768788585707.8247,1176.5567765567764,,1,1,1768788585.7078247
1768788585715.6372,1168.4981684981683,,1,1,1768788585.7156372
1768788585723.4497,1163.3699633699632,,1,1,1768788585.7234497
1768788585731.2622,1161.1721611721612,,1,1,1768788585.7312622
1768788585739.0747,1159.7069597069597,,1,1,1768788585.7390747
1768788585746.8872,1158.974358974359,,1,1,1768788585.7468872
1768788585754.6997,1161.1721611721612,,1,1,1768788585.7546997
1768788585762.5122,1161.1721611721612,,1,1,1768788585.7625122
1768788585770.3247,1162.6373626373625,,1,1,1768788585.7703247
1768788585778.1372,1164.8351648351647,,1,1,1768788585.7781372
1768788585785.9497,1171.428571428571,,1,1,1768788585.7859497
1768788585793.7622,1180.952380952381,,1,1,1768788585.7937622
1768788585801.5747,1193.4065934065934,,1,1,1768788585.8015747
1768788585809.3872,1205.8608058608058,,1,1,1768788585.8093872
1768788585817.1997,1215.3846153846152,,1,1,1768788585.8171997
1768788585825.0122,1221.245421245421,,1,1,1768788585.8250122
1768788585832.8247,1227.8388278388277,,1,1,1768788585.8328247
1768788585840.6372,1234.4322344322345,,1,1,1768788585.8406372
1768788585848.4497,1239.5604395604396,,1,1,1768788585.8484497
1768788585856.2622,1241.7582417582416,,1,1,1768788585.8562622
1768788585864.0747,1238.8278388278388,,1,1,1768788585.8640747
1768788585871.8872,1240.29304029304,,1,1,1768788585.8718872
1768788585879.6997,1241.7582417582416,,1,1,1768788585.8796997
1768788585887.5122,1244.688644688645,,1,1,1768788585.8875122
1768788585895.3247,1250.5494505494505,,1,1,1768788585.8953247
1768788585903.1372,1253.479853479853,,1,1,1768788585.9031372
1768788585910.9497,1255.6776556776556,,1,1,1768788585.9109497
1768788585918.7622,1257.142857142857,,1,1,1768788585.9187622
1768788585926.5747,1260.07326007326,,1,1,1768788585.9265747
1768788585934.3872,1261.5384615384614,,1,1,1768788585.9343872
1768788585942.1997,1262.2710622710622,,1,1,1768788585.9421997
1768788585950.0122,1264.4688644688645,,1,1,1768788585.9500122
1768788585957.8247,1268.8644688644688,,1,1,1768788585.9578247
1768788585965.6372,1271.062271062271,,1,1,1768788585.9656372
1768788585973.4497,1270.3296703296703,,1,1,1768788585.9734497
1768788585981.2622,1268.8644688644688,,1,1,1768788585.9812622
1768788585989.0747,1263.7362637362637,,1,1,1768788585.9890747
1768788585996.8872,1260.805860805861,,1,1,1768788585.9968872
1768788586004.6997,1259.3406593406592,,1,1,1768788586.0046997
1768788586012.5122,1260.805860805861,,1,1,1768788586.0125122
1768788586020.3247,1264.4688644688645,,1,1,1768788586.0203247
1768788586028.1372,1269.5970695970695,,1,1,1768788586.0281372
1768788586035.9497,1273.992673992674,,1,1,1768788586.0359497
1768788586043.7622,1277.6556776556777,,1,1,1768788586.0437622
1768788586051.5747,1275.4578754578754,,1,1,1768788586.0515747
1768788586059.3872,1268.8644688644688,,1,1,1768788586.0593872
1768788586067.1997,1261.5384615384614,,1,1,1768788586.0671997
1768788586075.0122,1254.212454212454,,1,1,1768788586.0750122
1768788586082.8247,1246.8864468864467,,1,1,1768788586.0828247
1768788586090.6372,1241.0256410256409,,1,1,1768788586.0906372
1768788586098.4497,1235.8974358974358,,1,1,1768788586.0984497
1768788586106.2622,1230.03663003663,,1,1,1768788586.1062622
1768788586114.0747,1226.3736263736264,,1,1,1768788586.1140747
1768788586121.8872,1223.4432234432234,,1,1,1768788586.1218872
1768788586129.6997,1224.9084249084249,,1,1,1768788586.1296997
1768788586137.5122,1230.7692307692307,,1,1,1768788586.1375122
1768788586145.3247,1235.164835164835,,1,1,1768788586.1453247
1768788586153.1372,1238.095238095238,,1,1,1768788586.1531372
1768788586160.9497,1240.29304029304,,1,1,1768788586.1609497
1768788586168.7622,1241.0256410256409,,1,1,1768788586.1687622
1768788586176.5747,1244.688644688645,,1,1,1768788586.1765747
1768788586184.3872,1251.2820512820513,,1,1,1768788586.1843872
1768788586192.1997,1259.3406593406592,,1,1,1768788586.1921997
1768788586200.0122,1263.7362637362637,,1,1,1768788586.2000122
1768788586207.8247,1268.131868131868,,1,1,1768788586.2078247
1768788586215.6372,1275.4578754578754,,1,1,1768788586.2156372
1768788586223.4497,1279.120879120879,,1,1,1768788586.2234497
1768788586231.2622,1279.120879120879,,1,1,1768788586.2312622
1768788586239.0747,1276.190476190476,,1,1,1768788586.2390747
1768788586246.8872,1274.7252747252746,,1,1,1768788586.2468872
1768788586254.6997,1272.5274725274724,,1,1,1768788586.2546997
1768788586262.5122,1270.3296703296703,,1,1,1768788586.2625122
1768788586270.3247,1267.3992673992673,,1,1,1768788586.2703247
1768788586278.1372,1263.003663003663,,1,1,1768788586.2781372
1768788586285.9497,1254.212454212454,,1,1,1768788586.2859497
1768788586293.7622,1243.956043956044,,1,1,1768788586.2937622
1768788586301.5747,1232.967032967033,,1,1,1768788586.3015747
1768788586309.3872,1225.6410256410256,,1,1,1768788586.3093872
1768788586317.1997,1219.047619047619,,1,1,1768788586.3171997
1768788586325.0122,1215.3846153846152,,1,1,1768788586.3250122
1768788586332.8247,1216.117216117216,,1,1,1768788586.3328247
1768788586340.6372,1216.8498168498168,,1,1,1768788586.3406372
1768788586348.4497,1216.117216117216,,1,1,1768788586.3484497
1768788586356.2622,1216.117216117216,,1,1,1768788586.3562622
1768788586364.0747,1216.8498168498168,,1,1,1768788586.3640747
1768788586371.8872,1217.5824175824175,,1,1,1768788586.3718872
1768788586379.6997,1217.5824175824175,,1,1,1768788586.3796997
1768788586387.5122,1217.5824175824175,,1,1,1768788586.3875122
1768788586395.3247,1219.047619047619,,1,1,1768788586.3953247
1768788586403.1372,1223.4432234432234,,1,1,1768788586.4031372
1768788586410.9497,1225.6410256410256,,1,1,1768788586.4109497
1768788586418.7622,1227.106227106227,,1,1,1768788586.4187622
1768788586426.5747,1228.5714285714284,,1,1,1768788586.4265747
1768788586434.3872,1232.967032967033,,1,1,1768788586.4343872
1768788586442.1997,1235.164835164835,,1,1,1768788586.4421997
1768788586450.0122,1236.6300366300366,,1,1,1768788586.4500122
1768788586457.8247,1238.8278388278388,,1,1,1768788586.4578247
1768788586465.6372,1242.4908424908424,,1,1,1768788586.4656372
1768788586473.4497,1244.688644688645,,1,1,1768788586.4734497
1768788586481.2622,1244.688644688645,,1,1,1768788586.4812622
1768788586489.0747,1242.4908424908424,,1,1,1768788586.4890747
1768788586496.8872,1241.0256410256409,,1,1,1768788586.4968872
1768788586504.6997,1239.5604395604396,,1,1,1768788586.5046997
1768788586512.5122,1241.7582417582416,,1,1,1768788586.5125122
1768788586520.3247,1244.688644688645,,1,1,1768788586.5203247
1768788586528.1372,1245.4212454212454,,1,1,1768788586.5281372
1768788586535.9497,1244.688644688645,,1,1,1768788586.5359497
1768788586543.7622,1242.4908424908424,,1,1,1768788586.5437622
1768788586551.5747,1243.2234432234432,,1,1,1768788586.5515747
1768788586559.3872,1239.5604395604396,,1,1,1768788586.5593872
1768788586567.1997,1235.164835164835,,1,1,1768788586.5671997
1768788586575.0122,1231.5018315018317,,1,1,1768788586.5750122
1768788586582.8247,1227.106227106227,,1,1,1768788586.5828247
1768788586590.6372,1225.6410256410256,,1,1,1768788586.5906372
1768788586598.4497,1227.8388278388277,,1,1,1768788586.5984497
1768788586606.2622,1230.7692307692307,,1,1,1768788586.6062622
1768788586614.0747,1232.967032967033,,1,1,1768788586.6140747
1768788586621.8872,1236.6300366300366,,1,1,1768788586.6218872
1768788586629.6997,1239.5604395604396,,1,1,1768788586.6296997
1768788586637.5122,1246.8864468864467,,1,1,1768788586.6375122
1768788586645.3247,1250.5494505494505,,1,1,1768788586.6453247
1768788586653.1372,1252.014652014652,,1,1,1768788586.6531372
1768788586660.9497,1250.5494505494505,,1,1,1768788586.6609497
1768788586668.7622,1246.8864468864467,,1,1,1768788586.6687622
1768788586676.5747,1243.2234432234432,,1,1,1768788586.6765747
1768788586684.3872,1238.095238095238,,1,1,1768788586.6843872
1768788586692.1997,1232.967032967033,,1,1,1768788586.6921997
1768788586700.0122,1227.106227106227,,1,1,1768788586.7000122
1768788586707.8247,1222.7106227106226,,1,1,1768788586.7078247
1768788586715.6372,1219.047619047619,,1,1,1768788586.7156372
1768788586723.4497,1219.047619047619,,1,1,1768788586.7234497
1768788586731.2622,1218.3150183150185,,1,1,1768788586.7312622
1768788586739.0747,1219.7802197802198,,1,1,1768788586.7390747
1768788586746.8872,1220.5128205128203,,1,1,1768788586.7468872
1768788586754.6997,1224.9084249084249,,1,1,1768788586.7546997
1768788586762.5122,1232.2344322344322,,1,1,1768788586.7625122
1768788586770.3247,1241.0256410256409,,1,1,1768788586.7703247
1768788586778.1372,1249.8168498168498,,1,1,1768788586.7781372
1768788586785.9497,1254.9450549450548,,1,1,1768788586.7859497
1768788586793.7622,1260.805860805861,,1,1,1768788586.7937622
1768788586801.5747,1265.2014652014652,,1,1,1768788586.8015747
1768788586809.3872,1272.5274725274724,,1,1,1768788586.8093872
1768788586817.1997,1282.7838827838827,,1,1,1768788586.8171997
1768788586825.0122,1294.5054945054944,,1,1,1768788586.8250122
1768788586832.8247,1306.9597069597069,,1,1,1768788586.8328247
1768788586840.6372,1320.14652014652,,1,1,1768788586.8406372
1768788586848.4497,1332.6007326007325,,1,1,1768788586.8484497
1768788586856.2622,1340.6593406593406,,1,1,1768788586.8562622
1768788586864.0747,1345.054945054945,,1,1,1768788586.8640747
1768788586871.8872,1349.4505494505493,,1,1,1768788586.8718872
1768788586879.6997,1356.7765567765566,,1,1,1768788586.8796997
1768788586887.5122,1360.4395604395604,,1,1,1768788586.8875122
1768788586895.3247,1357.5091575091574,,1,1,1768788586.8953247
1768788586903.1372,1355.311355311355,,1,1,1768788586.9031372
1768788586910.9497,1351.6483516483515,,1,1,1768788586.9109497
1768788586918.7622,1350.18315018315,,1,1,1768788586.9187622
1768788586926.5747,1344.3223443223442,,1,1,1768788586.9265747
1768788586934.3872,1342.124542124542,,1,1,1768788586.9343872
1768788586942.1997,1341.3919413919414,,1,1,1768788586.9421997
1768788586950.0122,1341.3919413919414,,1,1,1768788586.9500122
1768788586957.8247,1339.194139194139,,1,1,1768788586.9578247
1768788586965.6372,1335.5311355311355,,1,1,1768788586.9656372
1768788586973.4497,1332.6007326007325,,1,1,1768788586.9734497
1768788586981.2622,1327.4725274725274,,1,1,1768788586.9812622
1768788586989.0747,1326.007326007326,,1,1,1768788586.9890747
1768788586996.8872,1323.8095238095236,,1,1,1768788586.9968872
1768788587004.6997,1318.6813186813183,,1,1,1768788587.0046997
1768788587012.5122,1311.3553113553112,,1,1,1768788587.0125122
1768788587020.3247,1308.4249084249084,,1,1,1768788587.0203247
1768788587028.1372,1308.4249084249084,,1,1,1768788587.0281372
1768788587035.9497,1306.9597069597069,,1,1,1768788587.0359497
1768788587043.7622,1302.5641025641023,,1,1,1768788587.0437622
1768788587051.5747,1301.098901098901,,1,1,1768788587.0515747
1768788587059.3872,1296.7032967032967,,1,1,1768788587.0593872
1768788587067.1997,1293.7728937728937,,1,1,1768788587.0671997
1768788587075.0122,1295.2380952380952,,1,1,1768788587.0750122
1768788587082.8247,1295.2380952380952,,1,1,1768788587.0828247
1768788587090.6372,1298.9010989010987,,1,1,1768788587.0906372
1768788587098.4497,1302.5641025641023,,1,1,1768788587.0984497
1768788587106.2622,1306.227106227106,,1,1,1768788587.1062622
1768788587114.0747,1312.8205128205127,,1,1,1768788587.1140747
1768788587121.8872,1318.6813186813183,,1,1,1768788587.1218872
1768788587129.6997,1320.8791208791208,,1,1,1768788587.1296997
1768788587137.5122,1323.8095238095236,,1,1,1768788587.1375122
1768788587145.3247,1326.739926739927,,1,1,1768788587.1453247
1768788587153.1372,1333.3333333333333,,1,1,1768788587.1531372
1768788587160.9497,1334.7985347985348,,1,1,1768788587.1609497
1768788587168.7622,1333.3333333333333,,1,1,1768788587.1687622
1768788587176.5747,1332.6007326007325,,1,1,1768788587.1765747
1768788587184.3872,1331.8681318681315,,1,1,1768788587.1843872
1768788587192.1997,1327.4725274725274,,1,1,1768788587.1921997
1768788587200.0122,1322.3443223443223,,1,1,1768788587.2000122
1768788587207.8247,1320.8791208791208,,1,1,1768788587.2078247
1768788587215.6372,1318.6813186813183,,1,1,1768788587.2156372
1768788587223.4497,1315.7509157509155,,1,1,1768788587.2234497
1768788587231.2622,1313.5531135531137,,1,1,1768788587.2312622
1768788587239.0747,1306.227106227106,,1,1,1768788587.2390747
1768788587246.8872,1301.098901098901,,1,1,1768788587.2468872
1768788587254.6997,1298.168498168498,,1,1,1768788587.2546997
1768788587262.5122,1292.3076923076922,,1,1,1768788587.2625122
1768788587270.3247,1293.7728937728937,,1,1,1768788587.2703247
1768788587278.1372,1293.7728937728937,,1,1,1768788587.2781372
1768788587285.9497,1293.7728937728937,,1,1,1768788587.2859497
1768788587293.7622,1298.9010989010987,,1,1,1768788587.2937622
1768788587301.5747,1298.168498168498,,1,1,1768788587.3015747
1768788587309.3872,1295.2380952380952,,1,1,1768788587.3093872
1768788587317.1997,1295.2380952380952,,1,1,1768788587.3171997
1768788587325.0122,1289.3772893772891,,1,1,1768788587.3250122
1768788587332.8247,1290.10989010989,,1,1,1768788587.3328247
1768788587340.6372,1288.6446886446886,,1,1,1768788587.3406372
1768788587348.4497,1289.3772893772891,,1,1,1768788587.3484497
1768788587356.2622,1292.3076923076922,,1,1,1768788587.3562622
1768788587364.0747,1290.8424908424909,,1,1,1768788587.3640747
1768788587371.8872,1295.2380952380952,,1,1,1768788587.3718872
1768788587379.6997,1290.8424908424909,,1,1,1768788587.3796997
1768788587387.5122,1286.4468864468863,,1,1,1768788587.3875122
1768788587395.3247,1278.3882783882782,,1,1,1768788587.3953247
1768788587403.1372,1274.7252747252746,,1,1,1768788587.4031372
1768788587410.9497,1274.7252747252746,,1,1,1768788587.4109497
1768788587418.7622,1272.5274725274724,,1,1,1768788587.4187622
1768788587426.5747,1274.7252747252746,,1,1,1768788587.4265747
1768788587434.3872,1273.260073260073,,1,1,1768788587.4343872
1768788587442.1997,1273.260073260073,,1,1,1768788587.4421997
1768788587450.0122,1268.131868131868,,1,1,1768788587.4500122
1768788587457.8247,1268.131868131868,,1,1,1768788587.4578247
1768788587465.6372,1263.003663003663,,1,1,1768788587.4656372
1768788587473.4497,1259.3406593406592,,1,1,1768788587.4734497
1768788587481.2622,1259.3406593406592,,0,-1,1768788587.4812622
1768788587489.0747,1254.9450549450548,,0,-1,1768788587.4890747
1768788587496.8872,1257.142857142857,,0,-1,1768788587.4968872
1768788587504.6997,1256.4102564102564,,0,-1,1768788587.5046997
1768788587512.5122,1257.875457875458,,0,-1,1768788587.5125122
1768788587520.3247,1262.2710622710622,,0,-1,1768788587.5203247
1768788587528.1372,1263.7362637362637,,0,-1,1768788587.5281372
1768788587535.9497,1272.5274725274724,,0,-1,1768788587.5359497
1768788587543.7622,1282.7838827838827,,0,-1,1768788587.5437622
1768788587551.5747,1287.9120879120878,,0,-1,1768788587.5515747
1768788587559.3872,1293.7728937728937,,0,-1,1768788587.5593872
1768788587567.1997,1287.179487179487,,0,-1,1768788587.5671997
1768788587575.0122,1281.3186813186812,,0,-1,1768788587.5750122
1768788587582.8247,1274.7252747252746,,0,-1,1768788587.5828247
1768788587590.6372,1276.923076923077,,0,-1,1768788587.5906372
1768788587598.4497,1277.6556776556777,,0,-1,1768788587.5984497
1768788587606.2622,1275.4578754578754,,0,-1,1768788587.6062622
1768788587614.0747,1273.992673992674,,0,-1,1768788587.6140747
1768788587621.8872,1267.3992673992673,,0,-1,1768788587.6218872
1768788587629.6997,1263.7362637362637,,0,-1,1768788587.6296997
1768788587637.5122,1263.003663003663,,0,-1,1768788587.6375122
1768788587645.3247,1257.142857142857,,0,-1,1768788587.6453247
1768788587653.1372,1255.6776556776556,,0,-1,1768788587.6531372
1768788587660.9497,1254.212454212454,,0,-1,1768788587.6609497
1768788587668.7622,1262.2710622710622,,0,-1,1768788587.6687622
1768788587676.5747,1270.3296703296703,,0,-1,1768788587.6765747
1768788587684.3872,1280.5860805860805,,0,-1,1768788587.6843872
1768788587692.1997,1290.8424908424909,,0,-1,1768788587.6921997
1768788587700.0122,1302.5641025641023,,0,-1,1768788587.7000122
1768788587707.8247,1316.4835164835165,,0,-1,1768788587.7078247
1768788587715.6372,1329.6703296703297,,0,-1,1768788587.7156372
1768788587723.4497,1342.857142857143,,0,-1,1768788587.7234497
1768788587731.2622,1350.9157509157508,,0,-1,1768788587.7312622
1768788587739.0747,1355.311355311355,,0,-1,1768788587.7390747
1768788587746.8872,1358.974358974359,,0,-1,1768788587.7468872
1768788587754.6997,1358.974358974359,,0,-1,1768788587.7546997
1768788587762.5122,1364.8351648351647,,0,-1,1768788587.7625122
1768788587770.3247,1367.032967032967,,0,-1,1768788587.7703247
1768788587778.1372,1372.8937728937728,,0,-1,1768788587.7781372
1768788587785.9497,1377.2893772893772,,0,-1,1768788587.7859497
1768788587793.7622,1386.080586080586,,0,-1,1768788587.7937622
1768788587801.5747,1394.139194139194,,0,-1,1768788587.8015747
1768788587809.3872,1399.2673992673992,,0,-1,1768788587.8093872
1768788587817.1997,1405.128205128205,,0,-1,1768788587.8171997
1768788587825.0122,1405.128205128205,,0,-1,1768788587.8250122
1768788587832.8247,1409.5238095238094,,0,-1,1768788587.8328247
1768788587840.6372,1410.2564102564102,,0,-1,1768788587.8406372
1768788587848.4497,1411.7216117216117,,0,-1,1768788587.8484497
1768788587856.2622,1416.117216117216,,0,-1,1768788587.8562622
1768788587864.0747,1416.117216117216,,0,-1,1768788587.8640747
1768788587871.8872,1418.3150183150185,,0,-1,1768788587.8718872
1768788587879.6997,1415.3846153846152,,0,-1,1768788587.8796997
1768788587887.5122,1415.3846153846152,,0,-1,1768788587.8875122
1768788587895.3247,1413.1868131868132,,0,-1,1768788587.8953247
1768788587903.1372,1418.3150183150185,,0,-1,1768788587.9031372
1768788587910.9497,1426.3736263736262,,0,-1,1768788587.9109497
1768788587918.7622,1432.2344322344322,,0,-1,1768788587.9187622
1768788587926.5747,1436.6300366300366,,0,-1,1768788587.9265747
1768788587934.3872,1443.2234432234432,,0,-1,1768788587.9343872
1768788587942.1997,1443.2234432234432,,0,-1,1768788587.9421997
1768788587950.0122,1443.956043956044,,0,-1,1768788587.9500122
1768788587957.8247,1443.2234432234432,,0,-1,1768788587.9578247
1768788587965.6372,1435.8974358974358,,0,-1,1768788587.9656372
1768788587973.4497,1428.5714285714284,,0,-1,1768788587.9734497
1768788587981.2622,1415.3846153846152,,0,-1,1768788587.9812622
1768788587989.0747,1408.7912087912086,,0,-1,1768788587.9890747
1768788587996.8872,1397.8021978021975,,0,-1,1768788587.9968872
1768788588004.6997,1397.8021978021975,,0,-1,1768788588.0046997
1768788588012.5122,1397.069597069597,,0,-1,1768788588.0125122
1768788588020.3247,1405.128205128205,,0,-1,1768788588.0203247
1768788588028.1372,1408.058608058608,,0,-1,1768788588.0281372
1768788588035.9497,1412.4542124542124,,0,-1,1768788588.0359497
1768788588043.7622,1415.3846153846152,,0,-1,1768788588.0437622
1768788588051.5747,1421.9780219780218,,0,-1,1768788588.0515747
1768788588059.3872,1424.175824175824,,0,-1,1768788588.0593872
1768788588067.1997,1421.9780219780218,,0,-1,1768788588.0671997
1768788588075.0122,1424.175824175824,,0,-1,1768788588.0750122
1768788588082.8247,1421.9780219780218,,0,-1,1768788588.0828247
1768788588090.6372,1419.7802197802198,,0,-1,1768788588.0906372
1768788588098.4497,1419.047619047619,,0,-1,1768788588.0984497
1768788588106.2622,1410.989010989011,,0,-1,1768788588.1062622
1768788588114.0747,1407.3260073260071,,0,-1,1768788588.1140747
1768788588121.8872,1400.0,,0,-1,1768788588.1218872
1768788588129.6997,1391.941391941392,,0,-1,1768788588.1296997
1768788588137.5122,1390.4761904761904,,0,-1,1768788588.1375122
1768788588145.3247,1391.2087912087911,,0,-1,1768788588.1453247
1768788588153.1372,1388.278388278388,,0,-1,1768788588.1531372
1768788588160.9497,1388.278388278388,,0,-1,1768788588.1609497
1768788588168.7622,1381.6849816849815,,0,-1,1768788588.1687622
1768788588176.5747,1376.5567765567764,,0,-1,1768788588.1765747
1768788588184.3872,1374.3589743589744,,0,-1,1768788588.1843872
1768788588192.1997,1368.4981684981683,,0,-1,1768788588.1921997
1768788588200.0122,1369.9633699633698,,0,-1,1768788588.2000122
1768788588207.8247,1367.032967032967,,0,-1,1768788588.2078247
1768788588215.6372,1369.9633699633698,,0,-1,1768788588.2156372
1768788588223.4497,1369.230769230769,,0,-1,1768788588.2234497
1768788588231.2622,1367.7655677655678,,0,-1,1768788588.2312622
1768788588239.0747,1372.161172161172,,0,-1,1768788588.2390747
1768788588246.8872,1372.8937728937728,,0,-1,1768788588.2468872
1768788588254.6997,1371.428571428571,,0,-1,1768788588.2546997
1768788588262.5122,1371.428571428571,,0,-1,1768788588.2625122
1768788588270.3247,1372.161172161172,,0,-1,1768788588.2703247
1768788588278.1372,1367.7655677655678,,0,-1,1768788588.2781372
1768788588285.9497,1366.3003663003662,,0,-1,1768788588.2859497
1768788588293.7622,1358.974358974359,,0,-1,1768788588.2937622
1768788588301.5747,1353.8461538461538,,0,-1,1768788588.3015747
1768788588309.3872,1351.6483516483515,,0,-1,1768788588.3093872
1768788588317.1997,1345.7875457875457,,0,-1,1768788588.3171997
1768788588325.0122,1350.18315018315,,0,-1,1768788588.3250122
1768788588332.8247,1351.6483516483515,,0,-1,1768788588.3328247
1768788588340.6372,1354.5787545787546,,0,-1,1768788588.3406372
1768788588348.4497,1359.7069597069597,,0,-1,1768788588.3484497
1768788588356.2622,1363.3699633699632,,0,-1,1768788588.3562622
1768788588364.0747,1368.4981684981683,,0,-1,1768788588.3640747
1768788588371.8872,1372.8937728937728,,0,-1,1768788588.3718872
1768788588379.6997,1371.428571428571,,0,-1,1768788588.3796997
1768788588387.5122,1374.3589743589744,,0,-1,1768788588.3875122
1768788588395.3247,1376.5567765567764,,0,-1,1768788588.3953247
1768788588403.1372,1375.8241758241757,,0,-1,1768788588.4031372
1768788588410.9497,1379.4871794871794,,0,-1,1768788588.4109497
1768788588418.7622,1374.3589743589744,,0,-1,1768788588.4187622
1768788588426.5747,1371.428571428571,,0,-1,1768788588.4265747
1768788588434.3872,1360.4395604395604,,0,-1,1768788588.4343872
1768788588442.1997,1354.5787545787546,,0,-1,1768788588.4421997
1768788588450.0122,1346.5201465201465,,0,-1,1768788588.4500122
1768788588457.8247,1336.9963369963368,,0,-1,1768788588.4578247
1768788588465.6372,1336.9963369963368,,0,-1,1768788588.4656372
1768788588473.4497,1335.5311355311355,,0,-1,1768788588.4734497
1768788588481.2622,1336.263736263736,,0,-1,1768788588.4812622
1768788588489.0747,1334.7985347985348,,0,-1,1768788588.4890747
1768788588496.8872,1333.3333333333333,,0,-1,1768788588.4968872
1768788588504.6997,1332.6007326007325,,0,-1,1768788588.5046997
1768788588512.5122,1329.6703296703297,,0,-1,1768788588.5125122
1768788588520.3247,1322.3443223443223,,0,-1,1768788588.5203247
1768788588528.1372,1317.9487179487178,,0,-1,1768788588.5281372
1768788588535.9497,1315.7509157509155,,0,-1,1768788588.5359497
1768788588543.7622,1308.4249084249084,,0,-1,1768788588.5437622
1768788588551.5747,1300.3663003663005,,0,-1,1768788588.5515747
1768788588559.3872,1294.5054945054944,,0,-1,1768788588.5593872
1768788588567.1997,1291.5750915750914,,0,-1,1768788588.5671997
1768788588575.0122,1291.5750915750914,,0,-1,1768788588.5750122
1768788588582.8247,1295.970695970696,,0,-1,1768788588.5828247
1768788588590.6372,1303.2967032967033,,0,-1,1768788588.5906372
1768788588598.4497,1306.227106227106,,0,-1,1768788588.5984497
1768788588606.2622,1308.4249084249084,,0,-1,1768788588.6062622
1768788588614.0747,1314.2857142857142,,0,-1,1768788588.6140747
1768788588621.8872,1320.14652014652,,0,-1,1768788588.6218872
1768788588629.6997,1325.2747252747251,,0,-1,1768788588.6296997
1768788588637.5122,1330.4029304029302,,0,-1,1768788588.6375122
1768788588645.3247,1342.124542124542,,0,-1,1768788588.6453247
1768788588653.1372,1350.9157509157508,,0,-1,1768788588.6531372
1768788588660.9497,1357.5091575091574,,0,-1,1768788588.6609497
1768788588668.7622,1368.4981684981683,,0,-1,1768788588.6687622
1768788588676.5747,1382.4175824175825,,0,-1,1768788588.6765747
1768788588684.3872,1393.4065934065934,,0,-1,1768788588.6843872
1768788588692.1997,1404.3956043956043,,0,-1,1768788588.6921997
1768788588700.0122,1419.7802197802198,,0,-1,1768788588.7000122
1768788588707.8247,1435.164835164835,,0,-1,1768788588.7078247
1768788588715.6372,1450.5494505494505,,0,-1,1768788588.7156372
1768788588723.4497,1466.6666666666663,,0,-1,1768788588.7234497
1768788588731.2622,1484.2490842490845,,0,-1,1768788588.7312622
1768788588739.0747,1500.3663003663005,,0,-1,1768788588.7390747
1768788588746.8872,1513.5531135531137,,0,-1,1768788588.7468872
1768788588754.6997,1520.8791208791208,,0,-1,1768788588.7546997
1768788588762.5122,1524.5421245421244,,0,-1,1768788588.7625122
1768788588770.3247,1528.937728937729,,0,-1,1768788588.7703247
1768788588778.1372,1532.6007326007325,,0,-1,1768788588.7781372
1768788588785.9497,1537.7289377289376,,0,-1,1768788588.7859497
1768788588793.7622,1547.985347985348,,0,-1,1768788588.7937622
1768788588801.5747,1557.5091575091574,,0,-1,1768788588.8015747
1768788588809.3872,1565.5677655677655,,0,-1,1768788588.8093872
1768788588817.1997,1569.230769230769,,0,-1,1768788588.8171997
1768788588825.0122,1570.6959706959706,,0,-1,1768788588.8250122
1768788588832.8247,1569.9633699633698,,0,-1,1768788588.8328247
1768788588840.6372,1571.428571428571,,0,-1,1768788588.8406372
1768788588848.4497,1572.8937728937728,,0,-1,1768788588.8484497
1768788588856.2622,1572.161172161172,,0,-1,1768788588.8562622
1768788588864.0747,1570.6959706959706,,0,-1,1768788588.8640747
1768788588871.8872,1572.8937728937728,,0,-1,1768788588.8718872
1768788588879.6997,1574.3589743589744,,0,-1,1768788588.8796997
1768788588887.5122,1572.8937728937728,,0,-1,1768788588.8875122
1768788588895.3247,1569.9633699633698,,0,-1,1768788588.8953247
1768788588903.1372,1564.102564102564,,0,-1,1768788588.9031372
1768788588910.9497,1558.241758241758,,0,-1,1768788588.9109497
1768788588918.7622,1551.6483516483515,,0,-1,1768788588.9187622
1768788588926.5747,1550.18315018315,,0,-1,1768788588.9265747
1768788588934.3872,1553.113553113553,,0,-1,1768788588.9343872
1768788588942.1997,1556.7765567765566,,0,-1,1768788588.9421997
1768788588950.0122,1560.4395604395604,,0,-1,1768788588.9500122
1768788588957.8247,1559.7069597069597,,0,-1,1768788588.9578247
1768788588965.6372,1560.4395604395604,,0,-1,1768788588.9656372
1768788588973.4497,1562.6373626373625,,0,-1,1768788588.9734497
1768788588981.2622,1566.3003663003662,,0,-1,1768788588.9812622
1768788588989.0747,1568.4981684981683,,0,-1,1768788588.9890747
1768788588996.8872,1567.032967032967,,0,-1,1768788588.9968872
1768788589004.6997,1562.6373626373625,,0,-1,1768788589.0046997
1768788589012.5122,1559.7069597069597,,0,-1,1768788589.0125122
1768788589020.3247,1556.7765567765566,,0,-1,1768788589.0203247
1768788589028.1372,1555.311355311355,,0,-1,1768788589.0281372
1768788589035.9497,1556.7765567765566,,0,-1,1768788589.0359497
1768788589043.7622,1556.043956043956,,0,-1,1768788589.0437622
1768788589051.5747,1553.113553113553,,0,-1,1768788589.0515747
1768788589059.3872,1547.2527472527472,,0,-1,1768788589.0593872
1768788589067.1997,1542.857142857143,,0,-1,1768788589.0671997
1768788589075.0122,1535.5311355311355,,0,-1,1768788589.0750122
1768788589082.8247,1528.2051282051282,,0,-1,1768788589.0828247
1768788589090.6372,1523.0769230769229,,0,-1,1768788589.0906372
1768788589098.4497,1523.8095238095236,,0,-1,1768788589.0984497
1768788589106.2622,1527.4725274725274,,0,-1,1768788589.1062622
1768788589114.0747,1529.6703296703297,,0,-1,1768788589.1140747
1768788589121.8872,1532.6007326007325,,0,-1,1768788589.1218872
1768788589129.6997,1534.065934065934,,0,-1,1768788589.1296997
1768788589137.5122,1531.8681318681315,,0,-1,1768788589.1375122
1768788589145.3247,1525.2747252747251,,0,-1,1768788589.1453247
1768788589153.1372,1518.6813186813183,,0,-1,1768788589.1531372
1768788589160.9497,1515.7509157509155,,0,-1,1768788589.1609497
1768788589168.7622,1509.89010989011,,0,-1,1768788589.1687622
1768788589176.5747,1501.8315018315018,,0,-1,1768788589.1765747
1768788589184.3872,1493.7728937728937,,0,-1,1768788589.1843872
1768788589192.1997,1490.10989010989,,0,-1,1768788589.1921997
1768788589200.0122,1490.10989010989,,0,-1,1768788589.2000122
1768788589207.8247,1491.5750915750914,,0,-1,1768788589.2078247
1768788589215.6372,1495.2380952380952,,0,-1,1768788589.2156372
1768788589223.4497,1495.970695970696,,0,-1,1768788589.2234497
1768788589231.2622,1495.2380952380952,,0,-1,1768788589.2312622
1768788589239.0747,1497.4358974358972,,0,-1,1768788589.2390747
1768788589246.8872,1496.7032967032967,,0,-1,1768788589.2468872
1768788589254.6997,1493.040293040293,,0,-1,1768788589.2546997
1768788589262.5122,1488.6446886446886,,0,-1,1768788589.2625122
1768788589270.3247,1483.5164835164835,,0,-1,1768788589.2703247
1768788589278.1372,1475.4578754578754,,0,-1,1768788589.2781372
1768788589285.9497,1468.8644688644688,,0,-1,1768788589.2859497
1768788589293.7622,1457.875457875458,,0,-1,1768788589.2937622
1768788589301.5747,1449.084249084249,,0,-1,1768788589.3015747
1768788589309.3872,1443.2234432234432,,0,-1,1768788589.3093872
1768788589317.1997,1438.095238095238,,0,-1,1768788589.3171997
1768788589325.0122,1435.8974358974358,,0,-1,1768788589.3250122
1768788589332.8247,1434.4322344322345,,0,-1,1768788589.3328247
1768788589340.6372,1432.2344322344322,,0,-1,1768788589.3406372
1768788589348.4497,1429.3040293040292,,0,-1,1768788589.3484497
1768788589356.2622,1427.106227106227,,0,-1,1768788589.3562622
1768788589364.0747,1426.3736263736262,,0,-1,1768788589.3640747
1768788589371.8872,1428.5714285714284,,0,-1,1768788589.3718872
1768788589379.6997,1430.7692307692307,,0,-1,1768788589.3796997
1768788589387.5122,1433.6996336996335,,0,-1,1768788589.3875122
1768788589395.3247,1434.4322344322345,,0,-1,1768788589.3953247
1768788589403.1372,1435.164835164835,,0,-1,1768788589.4031372
1768788589410.9497,1434.4322344322345,,0,-1,1768788589.4109497
1768788589418.7622,1431.5018315018317,,0,-1,1768788589.4187622
1768788589426.5747,1425.6410256410256,,0,-1,1768788589.4265747
1768788589434.3872,1419.047619047619,,0,-1,1768788589.4343872
1768788589442.1997,1412.4542124542124,,0,-1,1768788589.4421997
1768788589450.0122,1406.5934065934066,,0,-1,1768788589.4500122
1768788589457.8247,1400.0,,0,-1,1768788589.4578247
1768788589465.6372,1393.4065934065934,,0,-1,1768788589.4656372
1768788589473.4497,1388.278388278388,,0,-1,1768788589.4734497
1768788589481.2622,1386.080586080586,,0,-1,1768788589.4812622
1768788589489.0747,1386.8131868131868,,0,-1,1768788589.4890747
1768788589496.8872,1387.5457875457876,,0,-1,1768788589.4968872
1768788589504.6997,1387.5457875457876,,0,-1,1768788589.5046997
1768788589512.5122,1388.278388278388,,0,-1,1768788589.5125122
1768788589520.3247,1389.0109890109889,,0,-1,1768788589.5203247
1768788589528.1372,1388.278388278388,,0,-1,1768788589.5281372
1768788589535.9497,1383.150183150183,,0,-1,1768788589.5359497
1768788589543.7622,1372.161172161172,,0,-1,1768788589.5437622
1768788589551.5747,1364.102564102564,,0,-1,1768788589.5515747
1768788589559.3872,1361.1721611721612,,0,-1,1768788589.5593872
1768788589567.1997,1360.4395604395604,,0,-1,1768788589.5671997
1768788589575.0122,1362.6373626373625,,0,-1,1768788589.5750122
1768788589582.8247,1364.102564102564,,0,-1,1768788589.5828247
1768788589590.6372,1366.3003663003662,,0,-1,1768788589.5906372
1768788589598.4497,1367.7655677655678,,0,-1,1768788589.5984497
1768788589606.2622,1367.032967032967,,0,-1,1768788589.6062622
1768788589614.0747,1362.6373626373625,,0,-1,1768788589.6140747
1768788589621.8872,1358.241758241758,,0,-1,1768788589.6218872
1768788589629.6997,1353.113553113553,,0,-1,1768788589.6296997
1768788589637.5122,1350.18315018315,,0,-1,1768788589.6375122
1768788589645.3247,1345.7875457875457,,0,-1,1768788589.6453247
1768788589653.1372,1344.3223443223442,,0,-1,1768788589.6531372
1768788589660.9497,1344.3223443223442,,0,-1,1768788589.6609497
1768788589668.7622,1346.5201465201465,,0,-1,1768788589.6687622
1768788589676.5747,1350.9157509157508,,0,-1,1768788589.6765747
1768788589684.3872,1357.5091575091574,,0,-1,1768788589.6843872
1768788589692.1997,1359.7069597069597,,0,-1,1768788589.6921997
1768788589700.0122,1356.7765567765566,,0,-1,1768788589.7000122
1768788589707.8247,1350.9157509157508,,0,-1,1768788589.7078247
1768788589715.6372,1349.4505494505493,,0,-1,1768788589.7156372
1768788589723.4497,1347.985347985348,,0,-1,1768788589.7234497
1768788589731.2622,1349.4505494505493,,0,-1,1768788589.7312622
1768788589739.0747,1354.5787545787546,,0,-1,1768788589.7390747
1768788589746.8872,1361.904761904762,,0,-1,1768788589.7468872
1768788589754.6997,1369.9633699633698,,0,-1,1768788589.7546997
1768788589762.5122,1380.2197802197802,,0,-1,1768788589.7625122
1768788589770.3247,1397.069597069597,,0,-1,1768788589.7703247
1768788589778.1372,1418.3150183150185,,0,-1,1768788589.7781372
1768788589785.9497,1439.5604395604394,,0,-1,1768788589.7859497
1768788589793.7622,1458.6080586080584,,0,-1,1768788589.7937622
1768788589801.5747,1480.5860805860805,,0,-1,1768788589.8015747
1768788589809.3872,1504.7619047619046,,0,-1,1768788589.8093872
1768788589817.1997,1526.739926739927,,0,-1,1768788589.8171997
1768788589825.0122,1550.18315018315,,0,-1,1768788589.8250122
1768788589832.8247,1572.161172161172,,0,-1,1768788589.8328247
1768788589840.6372,1592.6739926739926,,0,-1,1768788589.8406372
1768788589848.4497,1610.989010989011,,0,-1,1768788589.8484497
1768788589856.2622,1625.6410256410256,,0,-1,1768788589.8562622
1768788589864.0747,1635.8974358974358,,0,-1,1768788589.8640747
1768788589871.8872,1643.956043956044,,0,-1,1768788589.8718872
1768788589879.6997,1649.8168498168498,,0,-1,1768788589.8796997
1768788589887.5122,1657.142857142857,,0,-1,1768788589.8875122
1768788589895.3247,1659.3406593406592,,0,-1,1768788589.8953247
1768788589903.1372,1660.805860805861,,0,-1,1768788589.9031372
1768788589910.9497,1663.7362637362637,,0,-1,1768788589.9109497
1768788589918.7622,1668.131868131868,,0,-1,1768788589.9187622
1768788589926.5747,1672.5274725274724,,0,-1,1768788589.9265747
1768788589934.3872,1675.4578754578754,,0,-1,1768788589.9343872
1768788589942.1997,1679.8534798534797,,0,-1,1768788589.9421997
1768788589950.0122,1682.051282051282,,0,-1,1768788589.9500122
1768788589957.8247,1685.7142857142856,,0,-1,1768788589.9578247
1768788589965.6372,1687.179487179487,,0,-1,1768788589.9656372
1768788589973.4497,1688.6446886446886,,0,-1,1768788589.9734497
1768788589981.2622,1688.6446886446886,,0,-1,1768788589.9812622
1768788589989.0747,1690.10989010989,,0,-1,1768788589.9890747
1768788589996.8872,1690.10989010989,,0,-1,1768788589.9968872
1768788590004.6997,1685.7142857142856,,0,-1,1768788590.0046997
1768788590012.5122,1683.5164835164835,,0,-1,1768788590.0125122
1768788590020.3247,1681.3186813186812,,0,-1,1768788590.0203247
1768788590028.1372,1676.190476190476,,0,-1,1768788590.0281372
1768788590035.9497,1666.6666666666663,,0,-1,1768788590.0359497
1768788590043.7622,1657.875457875458,,0,-1,1768788590.0437622
1768788590051.5747,1652.0146520146518,,0,-1,1768788590.0515747
1768788590059.3872,1643.956043956044,,0,-1,1768788590.0593872
1768788590067.1997,1636.6300366300366,,0,-1,1768788590.0671997
1768788590075.0122,1629.3040293040292,,0,-1,1768788590.0750122
1768788590082.8247,1621.9780219780218,,0,-1,1768788590.0828247
1768788590090.6372,1617.5824175824175,,0,-1,1768788590.0906372
1768788590098.4497,1611.7216117216117,,0,-1,1768788590.0984497
1768788590106.2622,1609.5238095238094,,0,-1,1768788590.1062622
1768788590114.0747,1613.186813186813,,0,-1,1768788590.1140747
1768788590121.8872,1616.117216117216,,0,-1,1768788590.1218872
1768788590129.6997,1616.8498168498168,,0,-1,1768788590.1296997
1768788590137.5122,1616.8498168498168,,0,-1,1768788590.1375122
1768788590145.3247,1614.6520146520145,,0,-1,1768788590.1453247
1768788590153.1372,1614.6520146520145,,0,-1,1768788590.1531372
1768788590160.9497,1617.5824175824175,,0,-1,1768788590.1609497
1768788590168.7622,1621.9780219780218,,0,-1,1768788590.1687622
1768788590176.5747,1623.4432234432234,,0,-1,1768788590.1765747
1768788590184.3872,1619.047619047619,,0,-1,1768788590.1843872
1768788590192.1997,1616.117216117216,,0,-1,1768788590.1921997
1768788590200.0122,1605.128205128205,,0,-1,1768788590.2000122
1768788590207.8247,1589.0109890109889,,0,-1,1768788590.2078247
1768788590215.6372,1578.7545787545787,,0,-1,1768788590.2156372
1768788590223.4497,1569.9633699633698,,0,-1,1768788590.2234497
1768788590231.2622,1561.9047619047617,,0,-1,1768788590.2312622
1768788590239.0747,1553.8461538461538,,0,-1,1768788590.2390747
1768788590246.8872,1555.311355311355,,0,-1,1768788590.2468872
1768788590254.6997,1552.3809523809523,,0,-1,1768788590.2546997
1768788590262.5122,1556.043956043956,,0,-1,1768788590.2625122
1768788590270.3247,1557.5091575091574,,0,-1,1768788590.2703247
1768788590278.1372,1560.4395604395604,,0,-1,1768788590.2781372
1768788590285.9497,1560.4395604395604,,0,-1,1768788590.2859497
1768788590293.7622,1555.311355311355,,0,-1,1768788590.2937622
1768788590301.5747,1549.4505494505493,,0,-1,1768788590.3015747
1768788590309.3872,1545.7875457875457,,0,-1,1768788590.3093872
1768788590317.1997,1539.92673992674,,0,-1,1768788590.3171997
1768788590325.0122,1533.3333333333333,,0,-1,1768788590.3250122
1768788590332.8247,1531.8681318681315,,0,-1,1768788590.3328247
1768788590340.6372,1528.937728937729,,0,-1,1768788590.3406372
1768788590348.4497,1519.4139194139193,,0,-1,1768788590.3484497
1768788590356.2622,1510.6227106227104,,0,-1,1768788590.3562622
1768788590364.0747,1495.2380952380952,,0,-1,1768788590.3640747
1768788590371.8872,1480.5860805860805,,0,-1,1768788590.3718872
1768788590379.6997,1468.131868131868,,0,-1,1768788590.3796997
1768788590387.5122,1454.212454212454,,0,-1,1768788590.3875122
1768788590395.3247,1449.084249084249,,0,-1,1768788590.3953247
1768788590403.1372,1443.956043956044,,0,-1,1768788590.4031372
1768788590410.9497,1449.084249084249,,0,-1,1768788590.4109497
1768788590418.7622,1454.212454212454,,0,-1,1768788590.4187622
1768788590426.5747,1455.6776556776556,,0,-1,1768788590.4265747
1768788590434.3872,1456.4102564102564,,0,-1,1768788590.4343872
1768788590442.1997,1459.3406593406592,,0,-1,1768788590.4421997
1768788590450.0122,1457.875457875458,,0,-1,1768788590.4500122
1768788590457.8247,1452.014652014652,,0,-1,1768788590.4578247
1768788590465.6372,1449.8168498168498,,0,-1,1768788590.4656372
1768788590473.4497,1441.0256410256409,,0,-1,1768788590.4734497
1768788590481.2622,1432.9670329670328,,0,-1,1768788590.4812622
1768788590489.0747,1421.9780219780218,,0,-1,1768788590.4890747
1768788590496.8872,1416.8498168498168,,0,-1,1768788590.4968872
1768788590504.6997,1410.989010989011,,0,-1,1768788590.5046997
1768788590512.5122,1413.1868131868132,,0,-1,1768788590.5125122
1768788590520.3247,1416.8498168498168,,0,-1,1768788590.5203247
1768788590528.1372,1419.047619047619,,0,-1,1768788590.5281372
1768788590535.9497,1424.9084249084249,,0,-1,1768788590.5359497
1768788590543.7622,1430.7692307692307,,0,-1,1768788590.5437622
1768788590551.5747,1428.5714285714284,,0,-1,1768788590.5515747
1768788590559.3872,1425.6410256410256,,0,-1,1768788590.5593872
1768788590567.1997,1416.8498168498168,,0,-1,1768788590.5671997
1768788590575.0122,1409.5238095238094,,0,-1,1768788590.5750122
1768788590582.8247,1402.197802197802,,0,-1,1768788590.5828247
1768788590590.6372,1397.069597069597,,0,-1,1768788590.5906372
1768788590598.4497,1394.8717948717947,,0,-1,1768788590.5984497
1768788590606.2622,1400.7326007326003,,0,-1,1768788590.6062622
1768788590614.0747,1404.3956043956043,,0,-1,1768788590.6140747
1768788590621.8872,1408.7912087912086,,0,-1,1768788590.6218872
1768788590629.6997,1406.5934065934066,,0,-1,1768788590.6296997
1768788590637.5122,1406.5934065934066,,0,-1,1768788590.6375122
1768788590645.3247,1402.197802197802,,0,-1,1768788590.6453247
1768788590653.1372,1398.5347985347985,,0,-1,1768788590.6531372
1768788590660.9497,1395.6043956043954,,0,-1,1768788590.6609497
1768788590668.7622,1389.7435897435896,,0,-1,1768788590.6687622
1768788590676.5747,1387.5457875457876,,0,-1,1768788590.6765747
1768788590684.3872,1379.4871794871794,,0,-1,1768788590.6843872
1768788590692.1997,1376.5567765567764,,0,-1,1768788590.6921997
1768788590700.0122,1372.161172161172,,0,-1,1768788590.7000122
1768788590707.8247,1368.4981684981683,,0,-1,1768788590.7078247
1768788590715.6372,1369.230769230769,,0,-1,1768788590.7156372
1768788590723.4497,1364.8351648351647,,0,-1,1768788590.7234497
1768788590731.2622,1363.3699633699632,,0,-1,1768788590.7312622
1768788590739.0747,1361.1721611721612,,0,-1,1768788590.7390747
1768788590746.8872,1356.043956043956,,0,-1,1768788590.7468872
1768788590754.6997,1356.043956043956,,0,-1,1768788590.7546997
1768788590762.5122,1352.3809523809523,,0,-1,1768788590.7625122
1768788590770.3247,1352.3809523809523,,0,-1,1768788590.7703247
1768788590778.1372,1350.9157509157508,,0,-1,1768788590.7781372
1768788590785.9497,1346.5201465201465,,0,-1,1768788590.7859497
1768788590793.7622,1345.054945054945,,0,-1,1768788590.7937622
1768788590801.5747,1342.124542124542,,0,-1,1768788590.8015747
1768788590809.3872,1334.065934065934,,0,-1,1768788590.8093872
1768788590817.1997,1328.937728937729,,0,-1,1768788590.8171997
1768788590825.0122,1314.2857142857142,,0,-1,1768788590.8250122
1768788590832.8247,1305.4945054945051,,0,-1,1768788590.8328247
1768788590840.6372,1293.7728937728937,,0,-1,1768788590.8406372
1768788590848.4497,1289.3772893772891,,0,-1,1768788590.8484497
1768788590856.2622,1289.3772893772891,,0,-1,1768788590.8562622
1768788590864.0747,1297.4358974358977,,0,-1,1768788590.8640747
1768788590871.8872,1306.9597069597069,,0,-1,1768788590.8718872
1768788590879.6997,1319.4139194139193,,0,-1,1768788590.8796997
1768788590887.5122,1334.7985347985348,,0,-1,1768788590.8875122
1768788590895.3247,1354.5787545787546,,0,-1,1768788590.8953247
1768788590903.1372,1381.6849816849815,,0,-1,1768788590.9031372
1768788590910.9497,1407.3260073260071,,0,-1,1768788590.9109497
1768788590918.7622,1430.7692307692307,,0,-1,1768788590.9187622
1768788590926.5747,1454.9450549450548,,0,-1,1768788590.9265747
1768788590934.3872,1477.6556776556777,,0,-1,1768788590.9343872
1768788590942.1997,1504.7619047619046,,0,-1,1768788590.9421997
1768788590950.0122,1523.8095238095236,,0,-1,1768788590.9500122
1768788590957.8247,1539.92673992674,,0,-1,1768788590.9578247
1768788590965.6372,1550.18315018315,,0,-1,1768788590.9656372
1768788590973.4497,1567.7655677655678,,0,-1,1768788590.9734497
1768788590981.2622,1582.4175824175825,,0,-1,1768788590.9812622
1768788590989.0747,1600.7326007326003,,0,-1,1768788590.9890747
1768788590996.8872,1619.7802197802196,,0,-1,1768788590.9968872
1768788591004.6997,1635.164835164835,,0,-1,1768788591.0046997
1768788591012.5122,1653.479853479853,,0,-1,1768788591.0125122
1768788591020.3247,1662.2710622710622,,0,-1,1768788591.0203247
1768788591028.1372,1668.8644688644688,,0,-1,1768788591.0281372
1768788591035.9497,1669.5970695970695,,0,-1,1768788591.0359497
1768788591043.7622,1668.8644688644688,,0,-1,1768788591.0437622
1768788591051.5747,1666.6666666666663,,0,-1,1768788591.0515747
1768788591059.3872,1665.201465201465,,0,-1,1768788591.0593872
1768788591067.1997,1666.6666666666663,,0,-1,1768788591.0671997
1768788591075.0122,1665.9340659340658,,0,-1,1768788591.0750122
1768788591082.8247,1664.4688644688645,,0,-1,1768788591.0828247
1768788591090.6372,1657.875457875458,,0,-1,1768788591.0906372
1768788591098.4497,1654.212454212454,,0,-1,1768788591.0984497
1768788591106.2622,1653.479853479853,,0,-1,1768788591.1062622
1768788591114.0747,1657.142857142857,,0,-1,1768788591.1140747
1768788591121.8872,1654.9450549450548,,0,-1,1768788591.1218872
1768788591129.6997,1657.875457875458,,0,-1,1768788591.1296997
1768788591137.5122,1656.4102564102564,,0,-1,1768788591.1375122
1768788591145.3247,1656.4102564102564,,0,-1,1768788591.1453247
1768788591153.1372,1655.6776556776556,,0,-1,1768788591.1531372
1768788591160.9497,1655.6776556776556,,0,-1,1768788591.1609497
1768788591168.7622,1652.7472527472526,,0,-1,1768788591.1687622
1768788591176.5747,1646.153846153846,,0,-1,1768788591.1765747
1768788591184.3872,1641.0256410256409,,0,-1,1768788591.1843872
1768788591192.1997,1635.164835164835,,0,-1,1768788591.1921997
1768788591200.0122,1633.6996336996335,,0,-1,1768788591.2000122
1768788591207.8247,1628.5714285714284,,0,-1,1768788591.2078247
1768788591215.6372,1624.9084249084249,,0,-1,1768788591.2156372
1768788591223.4497,1618.3150183150185,,0,-1,1768788591.2234497
1768788591231.2622,1610.2564102564102,,0,-1,1768788591.2312622
1768788591239.0747,1603.6630036630036,,0,-1,1768788591.2390747
1768788591246.8872,1592.6739926739926,,0,-1,1768788591.2468872
1768788591254.6997,1586.080586080586,,0,-1,1768788591.2546997
1768788591262.5122,1573.6263736263736,,0,-1,1768788591.2625122
1768788591270.3247,1572.161172161172,,0,-1,1768788591.2703247
1768788591278.1372,1577.2893772893772,,1,2,1768788591.2781372
1768788591285.9497,1581.6849816849815,,1,2,1768788591.2859497
1768788591293.7622,1589.0109890109889,,1,2,1768788591.2937622
1768788591301.5747,1592.6739926739926,,1,2,1768788591.3015747
1768788591309.3872,1594.8717948717947,,1,2,1768788591.3093872
1768788591317.1997,1600.0,,1,2,1768788591.3171997
1768788591325.0122,1607.3260073260071,,1,2,1768788591.3250122
1768788591332.8247,1608.058608058608,,1,2,1768788591.3328247
1768788591340.6372,1611.7216117216117,,1,2,1768788591.3406372
1768788591348.4497,1608.7912087912086,,1,2,1768788591.3484497
1768788591356.2622,1606.5934065934066,,1,2,1768788591.3562622
1768788591364.0747,1605.128205128205,,1,2,1768788591.3640747
1768788591371.8872,1597.069597069597,,1,2,1768788591.3718872
1768788591379.6997,1592.6739926739926,,1,2,1768788591.3796997
1768788591387.5122,1583.8827838827838,,1,2,1768788591.3875122
1768788591395.3247,1577.2893772893772,,1,2,1768788591.3953247
1768788591403.1372,1571.428571428571,,1,2,1768788591.4031372
1768788591410.9497,1561.1721611721612,,1,2,1768788591.4109497
1768788591418.7622,1553.113553113553,,1,2,1768788591.4187622
1768788591426.5747,1542.124542124542,,1,2,1768788591.4265747
1768788591434.3872,1526.739926739927,,1,2,1768788591.4343872
1768788591442.1997,1515.7509157509155,,1,2,1768788591.4421997
1768788591450.0122,1505.4945054945051,,1,2,1768788591.4500122
1768788591457.8247,1491.5750915750914,,1,2,1768788591.4578247
1768788591465.6372,1482.051282051282,,1,2,1768788591.4656372
1768788591473.4497,1471.7948717948716,,1,2,1768788591.4734497
1768788591481.2622,1459.3406593406592,,1,2,1768788591.4812622
1768788591489.0747,1454.212454212454,,1,2,1768788591.4890747
1768788591496.8872,1449.8168498168498,,1,2,1768788591.4968872
1768788591504.6997,1446.153846153846,,1,2,1768788591.5046997
1768788591512.5122,1446.8864468864467,,1,2,1768788591.5125122
1768788591520.3247,1443.2234432234432,,1,2,1768788591.5203247
1768788591528.1372,1439.5604395604394,,1,2,1768788591.5281372
1768788591535.9497,1434.4322344322345,,1,2,1768788591.5359497
1768788591543.7622,1426.3736263736262,,1,2,1768788591.5437622
1768788591551.5747,1423.4432234432234,,1,2,1768788591.5515747
1768788591559.3872,1417.5824175824175,,1,2,1768788591.5593872
1768788591567.1997,1418.3150183150185,,1,2,1768788591.5671997
1768788591575.0122,1414.6520146520145,,1,2,1768788591.5750122
1768788591582.8247,1415.3846153846152,,1,2,1768788591.5828247
1768788591590.6372,1413.1868131868132,,1,2,1768788591.5906372
1768788591598.4497,1413.9194139194135,,1,2,1768788591.5984497
1768788591606.2622,1412.4542124542124,,1,2,1768788591.6062622
1768788591614.0747,1412.4542124542124,,1,2,1768788591.6140747
1768788591621.8872,1417.5824175824175,,1,2,1768788591.6218872
1768788591629.6997,1414.6520146520145,,1,2,1768788591.6296997
1768788591637.5122,1416.117216117216,,1,2,1768788591.6375122
1768788591645.3247,1413.9194139194135,,1,2,1768788591.6453247
1768788591653.1372,1410.2564102564102,,1,2,1768788591.6531372
1768788591660.9497,1408.058608058608,,1,2,1768788591.6609497
1768788591668.7622,1400.7326007326003,,1,2,1768788591.6687622
1768788591676.5747,1396.3369963369962,,1,2,1768788591.6765747
1768788591684.3872,1396.3369963369962,,1,2,1768788591.6843872
1768788591692.1997,1397.8021978021975,,1,2,1768788591.6921997
1768788591700.0122,1400.0,,1,2,1768788591.7000122
1768788591707.8247,1395.6043956043954,,1,2,1768788591.7078247
1768788591715.6372,1393.4065934065934,,1,2,1768788591.7156372
1768788591723.4497,1384.6153846153843,,1,2,1768788591.7234497
1768788591731.2622,1379.4871794871794,,1,2,1768788591.7312622
1768788591739.0747,1367.032967032967,,1,2,1768788591.7390747
1768788591746.8872,1359.7069597069597,,1,2,1768788591.7468872
1768788591754.6997,1348.7179487179487,,1,2,1768788591.7546997
1768788591762.5122,1344.3223443223442,,1,2,1768788591.7625122
1768788591770.3247,1339.92673992674,,1,2,1768788591.7703247
1768788591778.1372,1342.857142857143,,1,2,1768788591.7781372
1768788591785.9497,1344.3223443223442,,1,2,1768788591.7859497
1768788591793.7622,1345.054945054945,,1,2,1768788591.7937622
1768788591801.5747,1347.2527472527472,,1,2,1768788591.8015747
1768788591809.3872,1341.3919413919414,,1,2,1768788591.8093872
1768788591817.1997,1338.4615384615383,,1,2,1768788591.8171997
1768788591825.0122,1329.6703296703297,,1,2,1768788591.8250122
1768788591832.8247,1321.6117216117216,,1,2,1768788591.8328247
1768788591840.6372,1320.8791208791208,,1,2,1768788591.8406372
1768788591848.4497,1318.6813186813183,,1,2,1768788591.8484497
1768788591856.2622,1321.6117216117216,,1,2,1768788591.8562622
1768788591864.0747,1323.076923076923,,1,2,1768788591.8640747
1768788591871.8872,1330.4029304029302,,1,2,1768788591.8718872
1768788591879.6997,1332.6007326007325,,1,2,1768788591.8796997
1768788591887.5122,1337.7289377289376,,1,2,1768788591.8875122
1768788591895.3247,1341.3919413919414,,1,2,1768788591.8953247
1768788591903.1372,1338.4615384615383,,1,2,1768788591.9031372
1768788591910.9497,1338.4615384615383,,1,2,1768788591.9109497
1768788591918.7622,1335.5311355311355,,1,2,1768788591.9187622
1768788591926.5747,1329.6703296703297,,1,2,1768788591.9265747
1768788591934.3872,1326.007326007326,,1,2,1768788591.9343872
1768788591942.1997,1317.9487179487178,,1,2,1768788591.9421997
1768788591950.0122,1305.4945054945051,,1,2,1768788591.9500122
1768788591957.8247,1294.5054945054944,,1,2,1768788591.9578247
1768788591965.6372,1285.7142857142856,,1,2,1768788591.9656372
1768788591973.4497,1276.190476190476,,1,2,1768788591.9734497
1768788591981.2622,1270.3296703296703,,1,2,1768788591.9812622
1768788591989.0747,1273.992673992674,,1,2,1768788591.9890747
1768788591996.8872,1276.923076923077,,1,2,1768788591.9968872
1768788592004.6997,1281.3186813186812,,1,2,1768788592.0046997
1768788592012.5122,1291.5750915750914,,1,2,1768788592.0125122
1768788592020.3247,1308.4249084249084,,1,2,1768788592.0203247
1768788592028.1372,1330.4029304029302,,1,2,1768788592.0281372
1768788592035.9497,1355.311355311355,,1,2,1768788592.0359497
1768788592043.7622,1379.4871794871794,,1,2,1768788592.0437622
1768788592051.5747,1407.3260073260071,,1,2,1768788592.0515747
1768788592059.3872,1432.2344322344322,,1,2,1768788592.0593872
1768788592067.1997,1454.212454212454,,1,2,1768788592.0671997
1768788592075.0122,1478.3882783882782,,1,2,1768788592.0750122
1768788592082.8247,1499.6336996336995,,1,2,1768788592.0828247
1768788592090.6372,1518.6813186813183,,1,2,1768788592.0906372
1768788592098.4497,1527.4725274725274,,1,2,1768788592.0984497
1768788592106.2622,1529.6703296703297,,1,2,1768788592.1062622
1768788592114.0747,1534.065934065934,,1,2,1768788592.1140747
1768788592121.8872,1534.7985347985348,,1,2,1768788592.1218872
1768788592129.6997,1539.92673992674,,1,2,1768788592.1296997
1768788592137.5122,1545.054945054945,,1,2,1768788592.1375122
1768788592145.3247,1545.7875457875457,,1,2,1768788592.1453247
1768788592153.1372,1545.7875457875457,,1,2,1768788592.1531372
1768788592160.9497,1543.5897435897434,,1,2,1768788592.1609497
1768788592168.7622,1542.124542124542,,1,2,1768788592.1687622
1768788592176.5747,1538.4615384615383,,1,2,1768788592.1765747
1768788592184.3872,1539.194139194139,,1,2,1768788592.1843872
1768788592192.1997,1542.857142857143,,1,2,1768788592.1921997
1768788592200.0122,1545.7875457875457,,1,2,1768788592.2000122
1768788592207.8247,1549.4505494505493,,1,2,1768788592.2078247
1768788592215.6372,1549.4505494505493,,1,2,1768788592.2156372
1768788592223.4497,1547.2527472527472,,1,2,1768788592.2234497
1768788592231.2622,1548.7179487179485,,1,2,1768788592.2312622
1768788592239.0747,1549.4505494505493,,1,2,1768788592.2390747
1768788592246.8872,1547.985347985348,,1,2,1768788592.2468872
1768788592254.6997,1547.2527472527472,,1,2,1768788592.2546997
1768788592262.5122,1547.2527472527472,,1,2,1768788592.2625122
1768788592270.3247,1545.7875457875457,,1,2,1768788592.2703247
1768788592278.1372,1539.194139194139,,1,2,1768788592.2781372
1768788592285.9497,1531.135531135531,,1,2,1768788592.2859497
1768788592293.7622,1524.5421245421244,,1,2,1768788592.2937622
1768788592301.5747,1512.087912087912,,1,2,1768788592.3015747
1768788592309.3872,1498.9010989010987,,1,2,1768788592.3093872
1768788592317.1997,1488.6446886446886,,1,2,1768788592.3171997
1768788592325.0122,1479.120879120879,,1,2,1768788592.3250122
1768788592332.8247,1472.5274725274724,,1,2,1768788592.3328247
1768788592340.6372,1470.3296703296703,,1,2,1768788592.3406372
1768788592348.4497,1472.5274725274724,,1,2,1768788592.3484497
1768788592356.2622,1475.4578754578754,,1,2,1768788592.3562622
1768788592364.0747,1475.4578754578754,,1,2,1768788592.3640747
1768788592371.8872,1481.3186813186812,,1,2,1768788592.3718872
1768788592379.6997,1483.5164835164835,,1,2,1768788592.3796997
1768788592387.5122,1482.7838827838827,,1,2,1768788592.3875122
1768788592395.3247,1481.3186813186812,,1,2,1768788592.3953247
1768788592403.1372,1476.923076923077,,1,2,1768788592.4031372
1768788592410.9497,1470.3296703296703,,1,2,1768788592.4109497
1768788592418.7622,1463.003663003663,,1,2,1768788592.4187622
1768788592426.5747,1457.142857142857,,1,2,1768788592.4265747
1768788592434.3872,1454.9450549450548,,1,2,1768788592.4343872
1768788592442.1997,1454.9450549450548,,1,2,1768788592.4421997
1768788592450.0122,1454.9450549450548,,1,2,1768788592.4500122
1768788592457.8247,1454.212454212454,,1,2,1768788592.4578247
1768788592465.6372,1449.8168498168498,,1,2,1768788592.4656372
1768788592473.4497,1445.4212454212454,,1,2,1768788592.4734497
1768788592481.2622,1435.8974358974358,,1,2,1768788592.4812622
1768788592489.0747,1429.3040293040292,,1,2,1768788592.4890747
1768788592496.8872,1423.4432234432234,,1,2,1768788592.4968872
1768788592504.6997,1421.9780219780218,,1,2,1768788592.5046997
1768788592512.5122,1423.4432234432234,,1,2,1768788592.5125122
1768788592520.3247,1426.3736263736262,,1,2,1768788592.5203247
1768788592528.1372,1430.7692307692307,,1,2,1768788592.5281372
1768788592535.9497,1431.5018315018317,,1,2,1768788592.5359497
1768788592543.7622,1427.106227106227,,1,2,1768788592.5437622
1768788592551.5747,1420.5128205128203,,1,2,1768788592.5515747
1768788592559.3872,1413.9194139194135,,1,2,1768788592.5593872
1768788592567.1997,1410.2564102564102,,1,2,1768788592.5671997
1768788592575.0122,1406.5934065934066,,1,2,1768788592.5750122
1768788592582.8247,1406.5934065934066,,1,2,1768788592.5828247
1768788592590.6372,1406.5934065934066,,1,2,1768788592.5906372
1768788592598.4497,1402.9304029304028,,1,2,1768788592.5984497
1768788592606.2622,1394.8717948717947,,1,2,1768788592.6062622
1768788592614.0747,1386.8131868131868,,1,2,1768788592.6140747
1768788592621.8872,1379.4871794871794,,1,2,1768788592.6218872
1768788592629.6997,1372.8937728937728,,1,2,1768788592.6296997
1768788592637.5122,1364.102564102564,,1,2,1768788592.6375122
1768788592645.3247,1352.3809523809523,,1,2,1768788592.6453247
1768788592653.1372,1339.92673992674,,1,2,1768788592.6531372
1768788592660.9497,1328.2051282051282,,1,2,1768788592.6609497
1768788592668.7622,1316.4835164835165,,1,2,1768788592.6687622
1768788592676.5747,1309.89010989011,,1,2,1768788592.6765747
1768788592684.3872,1305.4945054945051,,1,2,1768788592.6843872
1768788592692.1997,1300.3663003663005,,1,2,1768788592.6921997
1768788592700.0122,1295.970695970696,,1,2,1768788592.7000122
1768788592707.8247,1293.040293040293,,1,2,1768788592.7078247
1768788592715.6372,1292.3076923076922,,1,2,1768788592.7156372
1768788592723.4497,1295.2380952380952,,1,2,1768788592.7234497
1768788592731.2622,1301.098901098901,,1,2,1768788592.7312622
1768788592739.0747,1304.7619047619046,,1,2,1768788592.7390747
1768788592746.8872,1306.9597069597069,,1,2,1768788592.7468872
1768788592754.6997,1309.89010989011,,1,2,1768788592.7546997
1768788592762.5122,1315.018315018315,,1,2,1768788592.7625122
1768788592770.3247,1320.14652014652,,1,2,1768788592.7703247
1768788592778.1372,1320.8791208791208,,1,2,1768788592.7781372
1768788592785.9497,1321.6117216117216,,1,2,1768788592.7859497
1768788592793.7622,1323.076923076923,,1,2,1768788592.7937622
1768788592801.5747,1320.8791208791208,,1,2,1768788592.8015747
1768788592809.3872,1317.216117216117,,1,2,1768788592.8093872
1768788592817.1997,1315.018315018315,,1,2,1768788592.8171997
1768788592825.0122,1310.6227106227104,,1,2,1768788592.8250122
1768788592832.8247,1306.9597069597069,,1,2,1768788592.8328247
1768788592840.6372,1306.9597069597069,,1,2,1768788592.8406372
1768788592848.4497,1305.4945054945051,,1,2,1768788592.8484497
1768788592856.2622,1298.168498168498,,1,2,1768788592.8562622
1768788592864.0747,1290.10989010989,,1,2,1768788592.8640747
1768788592871.8872,1283.5164835164835,,1,2,1768788592.8718872
1768788592879.6997,1275.4578754578754,,1,2,1768788592.8796997
1768788592887.5122,1270.3296703296703,,1,2,1768788592.8875122
1768788592895.3247,1265.9340659340658,,1,2,1768788592.8953247
1768788592903.1372,1261.5384615384614,,1,2,1768788592.9031372
1768788592910.9497,1258.6080586080586,,1,2,1768788592.9109497
1768788592918.7622,1256.4102564102564,,1,2,1768788592.9187622
1768788592926.5747,1253.479853479853,,1,2,1768788592.9265747
1768788592934.3872,1250.5494505494505,,1,2,1768788592.9343872
1768788592942.1997,1241.0256410256409,,1,2,1768788592.9421997
1768788592950.0122,1233.6996336996335,,1,2,1768788592.9500122
1768788592957.8247,1229.3040293040292,,1,2,1768788592.9578247
1768788592965.6372,1230.7692307692307,,1,2,1768788592.9656372
1768788592973.4497,1234.4322344322345,,1,2,1768788592.9734497
1768788592981.2622,1239.5604395604396,,1,2,1768788592.9812622
1768788592989.0747,1246.153846153846,,1,2,1768788592.9890747
1768788592996.8872,1249.8168498168498,,1,2,1768788592.9968872
1768788593004.6997,1257.142857142857,,1,2,1768788593.0046997
1768788593012.5122,1265.2014652014652,,1,2,1768788593.0125122
1768788593020.3247,1271.7948717948716,,1,2,1768788593.0203247
1768788593028.1372,1280.5860805860805,,1,2,1768788593.0281372
1768788593035.9497,1291.5750915750914,,1,2,1768788593.0359497
1768788593043.7622,1303.2967032967033,,1,2,1768788593.0437622
1768788593051.5747,1312.8205128205127,,1,2,1768788593.0515747
1768788593059.3872,1322.3443223443223,,1,2,1768788593.0593872
1768788593067.1997,1333.3333333333333,,1,2,1768788593.0671997
1768788593075.0122,1347.985347985348,,1,2,1768788593.0750122
1768788593082.8247,1364.8351648351647,,1,2,1768788593.0828247
1768788593090.6372,1380.952380952381,,1,2,1768788593.0906372
1768788593098.4497,1391.941391941392,,1,2,1768788593.0984497
1768788593106.2622,1400.0,,1,2,1768788593.1062622
1768788593114.0747,1405.8608058608058,,1,2,1768788593.1140747
1768788593121.8872,1411.7216117216117,,1,2,1768788593.1218872
1768788593129.6997,1416.117216117216,,1,2,1768788593.1296997
1768788593137.5122,1420.5128205128203,,1,2,1768788593.1375122
1768788593145.3247,1419.7802197802198,,1,2,1768788593.1453247
1768788593153.1372,1416.8498168498168,,1,2,1768788593.1531372
1768788593160.9497,1413.1868131868132,,1,2,1768788593.1609497
1768788593168.7622,1408.7912087912086,,1,2,1768788593.1687622
1768788593176.5747,1405.8608058608058,,1,2,1768788593.1765747
1768788593184.3872,1402.9304029304028,,1,2,1768788593.1843872
1768788593192.1997,1399.2673992673992,,1,2,1768788593.1921997
1768788593200.0122,1395.6043956043954,,1,2,1768788593.2000122
1768788593207.8247,1397.069597069597,,1,2,1768788593.2078247
1768788593215.6372,1398.5347985347985,,1,2,1768788593.2156372
1768788593223.4497,1397.069597069597,,1,2,1768788593.2234497
1768788593231.2622,1396.3369963369962,,1,2,1768788593.2312622
1768788593239.0747,1394.8717948717947,,1,2,1768788593.2390747
1768788593246.8872,1393.4065934065934,,1,2,1768788593.2468872
1768788593254.6997,1387.5457875457876,,1,2,1768788593.2546997
1768788593262.5122,1378.7545787545787,,1,2,1768788593.2625122
1768788593270.3247,1372.8937728937728,,1,2,1768788593.2703247
1768788593278.1372,1367.7655677655678,,1,2,1768788593.2781372
1768788593285.9497,1361.1721611721612,,1,2,1768788593.2859497
1768788593293.7622,1358.974358974359,,1,2,1768788593.2937622
1768788593301.5747,1354.5787545787546,,1,2,1768788593.3015747
1768788593309.3872,1353.8461538461538,,1,2,1768788593.3093872
1768788593317.1997,1353.113553113553,,1,2,1768788593.3171997
1768788593325.0122,1352.3809523809523,,1,2,1768788593.3250122
1768788593332.8247,1350.18315018315,,1,2,1768788593.3328247
1768788593340.6372,1347.985347985348,,1,2,1768788593.3406372
1768788593348.4497,1349.4505494505493,,1,2,1768788593.3484497
1768788593356.2622,1351.6483516483515,,1,2,1768788593.3562622
1768788593364.0747,1351.6483516483515,,1,2,1768788593.3640747
1768788593371.8872,1348.7179487179487,,1,2,1768788593.3718872
1768788593379.6997,1344.3223443223442,,1,2,1768788593.3796997
1768788593387.5122,1338.4615384615383,,1,2,1768788593.3875122
1768788593395.3247,1335.5311355311355,,1,2,1768788593.3953247
1768788593403.1372,1337.7289377289376,,1,2,1768788593.4031372
1768788593410.9497,1340.6593406593406,,1,2,1768788593.4109497
1768788593418.7622,1343.5897435897434,,1,2,1768788593.4187622
1768788593426.5747,1350.9157509157508,,1,2,1768788593.4265747
1768788593434.3872,1355.311355311355,,1,2,1768788593.4343872
1768788593442.1997,1354.5787545787546,,1,2,1768788593.4421997
1768788593450.0122,1350.9157509157508,,1,2,1768788593.4500122
1768788593457.8247,1342.857142857143,,1,2,1768788593.4578247
1768788593465.6372,1335.5311355311355,,1,2,1768788593.4656372
1768788593473.4497,1330.4029304029302,,1,2,1768788593.4734497
1768788593481.2622,1324.5421245421244,,1,2,1768788593.4812622
1768788593489.0747,1315.7509157509155,,1,2,1768788593.4890747
1768788593496.8872,1305.4945054945051,,1,2,1768788593.4968872
1768788593504.6997,1296.7032967032967,,1,2,1768788593.5046997
1768788593512.5122,1289.3772893772891,,1,2,1768788593.5125122
1768788593520.3247,1281.3186813186812,,1,2,1768788593.5203247
1768788593528.1372,1270.3296703296703,,1,2,1768788593.5281372
1768788593535.9497,1256.4102564102564,,1,2,1768788593.5359497
1768788593543.7622,1248.3516483516482,,1,2,1768788593.5437622
1768788593551.5747,1243.956043956044,,1,2,1768788593.5515747
1768788593559.3872,1243.2234432234432,,1,2,1768788593.5593872
1768788593567.1997,1245.4212454212454,,1,2,1768788593.5671997
1768788593575.0122,1248.3516483516482,,1,2,1768788593.5750122
1768788593582.8247,1254.9450549450548,,1,2,1768788593.5828247
1768788593590.6372,1258.6080586080586,,1,2,1768788593.5906372
1768788593598.4497,1260.07326007326,,1,2,1768788593.5984497
1768788593606.2622,1262.2710622710622,,1,2,1768788593.6062622
1768788593614.0747,1261.5384615384614,,1,2,1768788593.6140747
1768788593621.8872,1257.142857142857,,1,2,1768788593.6218872
1768788593629.6997,1255.6776556776556,,1,2,1768788593.6296997
1768788593637.5122,1256.4102564102564,,1,2,1768788593.6375122
1768788593645.3247,1259.3406593406592,,1,2,1768788593.6453247
1768788593653.1372,1258.6080586080586,,1,2,1768788593.6531372
1768788593660.9497,1257.875457875458,,1,2,1768788593.6609497
1768788593668.7622,1260.07326007326,,1,2,1768788593.6687622
1768788593676.5747,1261.5384615384614,,1,2,1768788593.6765747
1768788593684.3872,1260.07326007326,,1,2,1768788593.6843872
1768788593692.1997,1257.875457875458,,1,2,1768788593.6921997
1768788593700.0122,1255.6776556776556,,1,2,1768788593.7000122
1768788593707.8247,1252.7472527472526,,1,2,1768788593.7078247
1768788593715.6372,1250.5494505494505,,1,2,1768788593.7156372
1768788593723.4497,1245.4212454212454,,1,2,1768788593.7234497
1768788593731.2622,1241.0256410256409,,1,2,1768788593.7312622
1768788593739.0747,1239.5604395604396,,1,2,1768788593.7390747
1768788593746.8872,1240.29304029304,,1,2,1768788593.7468872
1768788593754.6997,1241.7582417582416,,1,2,1768788593.7546997
1768788593762.5122,1242.4908424908424,,1,2,1768788593.7625122
1768788593770.3247,1240.29304029304,,1,2,1768788593.7703247
1768788593778.1372,1232.2344322344322,,1,2,1768788593.7781372
1768788593785.9497,1221.245421245421,,1,2,1768788593.7859497
1768788593793.7622,1213.1868131868132,,1,2,1768788593.7937622
1768788593801.5747,1203.6630036630036,,1,2,1768788593.8015747
1768788593809.3872,1194.8717948717947,,1,2,1768788593.8093872
1768788593817.1997,1186.8131868131868,,1,2,1768788593.8171997
1768788593825.0122,1180.952380952381,,1,2,1768788593.8250122
1768788593832.8247,1183.8827838827838,,1,2,1768788593.8328247
1768788593840.6372,1191.941391941392,,1,2,1768788593.8406372
1768788593848.4497,1200.7326007326008,,1,2,1768788593.8484497
1768788593856.2622,1208.058608058608,,1,2,1768788593.8562622
1768788593864.0747,1208.7912087912086,,1,2,1768788593.8640747
1768788593871.8872,1207.3260073260074,,1,2,1768788593.8718872
1768788593879.6997,1205.128205128205,,1,2,1768788593.8796997
1768788593887.5122,1203.6630036630036,,1,2,1768788593.8875122
1768788593895.3247,1202.197802197802,,1,2,1768788593.8953247
1768788593903.1372,1200.7326007326008,,1,2,1768788593.9031372
1768788593910.9497,1201.4652014652013,,1,2,1768788593.9109497
1768788593918.7622,1205.8608058608058,,1,2,1768788593.9187622
1768788593926.5747,1213.9194139194135,,1,2,1768788593.9265747
1768788593934.3872,1224.9084249084249,,1,2,1768788593.9343872
1768788593942.1997,1235.164835164835,,1,2,1768788593.9421997
1768788593950.0122,1243.2234432234432,,1,2,1768788593.9500122
1768788593957.8247,1252.014652014652,,1,2,1768788593.9578247
1768788593965.6372,1263.003663003663,,1,2,1768788593.9656372
1768788593973.4497,1276.190476190476,,1,2,1768788593.9734497
1768788593981.2622,1290.10989010989,,1,2,1768788593.9812622
1768788593989.0747,1307.6923076923076,,1,2,1768788593.9890747
1768788593996.8872,1324.5421245421244,,1,2,1768788593.9968872
1768788594004.6997,1335.5311355311355,,1,2,1768788594.0046997
1768788594012.5122,1343.5897435897434,,1,2,1768788594.0125122
1768788594020.3247,1350.18315018315,,1,2,1768788594.0203247
1768788594028.1372,1355.311355311355,,1,2,1768788594.0281372
1768788594035.9497,1356.7765567765566,,1,2,1768788594.0359497
1768788594043.7622,1354.5787545787546,,1,2,1768788594.0437622
1768788594051.5747,1350.18315018315,,1,2,1768788594.0515747
1768788594059.3872,1345.054945054945,,1,2,1768788594.0593872
1768788594067.1997,1339.194139194139,,1,2,1768788594.0671997
1768788594075.0122,1340.6593406593406,,1,2,1768788594.0750122
1768788594082.8247,1340.6593406593406,,1,2,1768788594.0828247
1768788594090.6372,1341.3919413919414,,1,2,1768788594.0906372
1768788594098.4497,1339.194139194139,,1,2,1768788594.0984497
1768788594106.2622,1337.7289377289376,,1,2,1768788594.1062622
1768788594114.0747,1337.7289377289376,,1,2,1768788594.1140747
1768788594121.8872,1339.92673992674,,1,2,1768788594.1218872
1768788594129.6997,1337.7289377289376,,1,2,1768788594.1296997
1768788594137.5122,1336.263736263736,,1,2,1768788594.1375122
1768788594145.3247,1338.4615384615383,,1,2,1768788594.1453247
1768788594153.1372,1340.6593406593406,,1,2,1768788594.1531372
1768788594160.9497,1342.857142857143,,1,2,1768788594.1609497
1768788594168.7622,1343.5897435897434,,1,2,1768788594.1687622
1768788594176.5747,1340.6593406593406,,1,2,1768788594.1765747
1768788594184.3872,1334.7985347985348,,1,2,1768788594.1843872
1768788594192.1997,1328.937728937729,,1,2,1768788594.1921997
1768788594200.0122,1320.8791208791208,,1,2,1768788594.2000122
1768788594207.8247,1313.5531135531137,,1,2,1768788594.2078247
1768788594215.6372,1309.1575091575091,,1,2,1768788594.2156372
1768788594223.4497,1307.6923076923076,,1,2,1768788594.2234497
1768788594231.2622,1306.227106227106,,1,2,1768788594.2312622
1768788594239.0747,1306.227106227106,,1,2,1768788594.2390747
1768788594246.8872,1310.6227106227104,,1,2,1768788594.2468872
1768788594254.6997,1316.4835164835165,,1,2,1768788594.2546997
1768788594262.5122,1319.4139194139193,,1,2,1768788594.2625122
1768788594270.3247,1320.14652014652,,1,2,1768788594.2703247
1768788594278.1372,1319.4139194139193,,1,2,1768788594.2781372
1768788594285.9497,1318.6813186813183,,1,2,1768788594.2859497
1768788594293.7622,1318.6813186813183,,1,2,1768788594.2937622
1768788594301.5747,1321.6117216117216,,1,2,1768788594.3015747
1768788594309.3872,1324.5421245421244,,1,2,1768788594.3093872
1768788594317.1997,1321.6117216117216,,1,2,1768788594.3171997
1768788594325.0122,1317.9487179487178,,1,2,1768788594.3250122
1768788594332.8247,1314.2857142857142,,1,2,1768788594.3328247
1768788594340.6372,1307.6923076923076,,1,2,1768788594.3406372
1768788594348.4497,1300.3663003663005,,1,2,1768788594.3484497
1768788594356.2622,1292.3076923076922,,1,2,1768788594.3562622
1768788594364.0747,1283.5164835164835,,0,-1,1768788594.3640747
1768788594371.8872,1280.5860805860805,,0,-1,1768788594.3718872
1768788594379.6997,1278.3882783882782,,0,-1,1768788594.3796997
1768788594387.5122,1275.4578754578754,,0,-1,1768788594.3875122
1768788594395.3247,1273.992673992674,,0,-1,1768788594.3953247
1768788594403.1372,1271.7948717948716,,0,-1,1768788594.4031372
1768788594410.9497,1269.5970695970695,,0,-1,1768788594.4109497
1768788594418.7622,1268.8644688644688,,0,-1,1768788594.4187622
1768788594426.5747,1270.3296703296703,,0,-1,1768788594.4265747
1768788594434.3872,1272.5274725274724,,0,-1,1768788594.4343872
1768788594442.1997,1271.7948717948716,,0,-1,1768788594.4421997
1768788594450.0122,1268.131868131868,,0,-1,1768788594.4500122
1768788594457.8247,1265.2014652014652,,0,-1,1768788594.4578247
1768788594465.6372,1262.2710622710622,,0,-1,1768788594.4656372
1768788594473.4497,1262.2710622710622,,0,-1,1768788594.4734497
1768788594481.2622,1266.6666666666663,,0,-1,1768788594.4812622
1768788594489.0747,1270.3296703296703,,0,-1,1768788594.4890747
1768788594496.8872,1270.3296703296703,,0,-1,1768788594.4968872
1768788594504.6997,1268.131868131868,,0,-1,1768788594.5046997
1768788594512.5122,1270.3296703296703,,0,-1,1768788594.5125122
1768788594520.3247,1273.992673992674,,0,-1,1768788594.5203247
1768788594528.1372,1276.923076923077,,0,-1,1768788594.5281372
1768788594535.9497,1279.8534798534797,,0,-1,1768788594.5359497
1768788594543.7622,1280.5860805860805,,0,-1,1768788594.5437622
1768788594551.5747,1284.2490842490845,,0,-1,1768788594.5515747
1768788594559.3872,1288.6446886446886,,0,-1,1768788594.5593872
1768788594567.1997,1290.8424908424909,,0,-1,1768788594.5671997
1768788594575.0122,1287.179487179487,,0,-1,1768788594.5750122
1768788594582.8247,1279.120879120879,,0,-1,1768788594.5828247
1768788594590.6372,1267.3992673992673,,0,-1,1768788594.5906372
1768788594598.4497,1254.9450549450548,,0,-1,1768788594.5984497
1768788594606.2622,1246.8864468864467,,0,-1,1768788594.6062622
1768788594614.0747,1242.4908424908424,,0,-1,1768788594.6140747
1768788594621.8872,1240.29304029304,,0,-1,1768788594.6218872
1768788594629.6997,1241.0256410256409,,0,-1,1768788594.6296997
1768788594637.5122,1245.4212454212454,,0,-1,1768788594.6375122
1768788594645.3247,1252.7472527472526,,0,-1,1768788594.6453247
1768788594653.1372,1261.5384615384614,,0,-1,1768788594.6531372
1768788594660.9497,1270.3296703296703,,0,-1,1768788594.6609497
1768788594668.7622,1276.190476190476,,0,-1,1768788594.6687622
1768788594676.5747,1275.4578754578754,,0,-1,1768788594.6765747
1768788594684.3872,1268.8644688644688,,0,-1,1768788594.6843872
1768788594692.1997,1258.6080586080586,,0,-1,1768788594.6921997
1768788594700.0122,1245.4212454212454,,0,-1,1768788594.7000122
1768788594707.8247,1234.4322344322345,,0,-1,1768788594.7078247
1768788594715.6372,1227.8388278388277,,0,-1,1768788594.7156372
1768788594723.4497,1224.9084249084249,,0,-1,1768788594.7234497
1768788594731.2622,1225.6410256410256,,0,-1,1768788594.7312622
1768788594739.0747,1226.3736263736264,,0,-1,1768788594.7390747
1768788594746.8872,1226.3736263736264,,0,-1,1768788594.7468872
1768788594754.6997,1229.3040293040292,,0,-1,1768788594.7546997
1768788594762.5122,1234.4322344322345,,0,-1,1768788594.7625122
1768788594770.3247,1240.29304029304,,0,-1,1768788594.7703247
1768788594778.1372,1247.6190476190477,,0,-1,1768788594.7781372
1768788594785.9497,1255.6776556776556,,0,-1,1768788594.7859497
1768788594793.7622,1258.6080586080586,,0,-1,1768788594.7937622
1768788594801.5747,1258.6080586080586,,0,-1,1768788594.8015747
1768788594809.3872,1252.7472527472526,,0,-1,1768788594.8093872
1768788594817.1997,1243.2234432234432,,0,-1,1768788594.8171997
1768788594825.0122,1234.4322344322345,,0,-1,1768788594.8250122
1768788594832.8247,1228.5714285714284,,0,-1,1768788594.8328247
1768788594840.6372,1226.3736263736264,,0,-1,1768788594.8406372
1768788594848.4497,1229.3040293040292,,0,-1,1768788594.8484497
1768788594856.2622,1236.6300366300366,,0,-1,1768788594.8562622
1768788594864.0747,1250.5494505494505,,0,-1,1768788594.8640747
1768788594871.8872,1266.6666666666663,,0,-1,1768788594.8718872
1768788594879.6997,1282.051282051282,,0,-1,1768788594.8796997
1768788594887.5122,1301.098901098901,,0,-1,1768788594.8875122
1768788594895.3247,1317.9487179487178,,0,-1,1768788594.8953247
1768788594903.1372,1331.8681318681315,,0,-1,1768788594.9031372
1768788594910.9497,1345.054945054945,,0,-1,1768788594.9109497
1768788594918.7622,1350.9157509157508,,0,-1,1768788594.9187622
1768788594926.5747,1356.043956043956,,0,-1,1768788594.9265747
1768788594934.3872,1361.904761904762,,0,-1,1768788594.9343872
1768788594942.1997,1364.102564102564,,0,-1,1768788594.9421997
1768788594950.0122,1363.3699633699632,,0,-1,1768788594.9500122
1768788594957.8247,1367.032967032967,,0,-1,1768788594.9578247
1768788594965.6372,1369.9633699633698,,0,-1,1768788594.9656372
1768788594973.4497,1370.6959706959706,,0,-1,1768788594.9734497
1768788594981.2622,1365.5677655677655,,0,-1,1768788594.9812622
1768788594989.0747,1357.5091575091574,,0,-1,1768788594.9890747
1768788594996.8872,1349.4505494505493,,0,-1,1768788594.9968872
1768788595004.6997,1343.5897435897434,,0,-1,1768788595.0046997
1768788595012.5122,1342.124542124542,,0,-1,1768788595.0125122
1768788595020.3247,1342.124542124542,,0,-1,1768788595.0203247
1768788595028.1372,1341.3919413919414,,0,-1,1768788595.0281372
1768788595035.9497,1345.054945054945,,0,-1,1768788595.0359497
1768788595043.7622,1350.18315018315,,0,-1,1768788595.0437622
1768788595051.5747,1357.5091575091574,,0,-1,1768788595.0515747
1768788595059.3872,1361.904761904762,,0,-1,1768788595.0593872
1768788595067.1997,1367.032967032967,,0,-1,1768788595.0671997
1768788595075.0122,1368.4981684981683,,0,-1,1768788595.0750122
1768788595082.8247,1367.032967032967,,0,-1,1768788595.0828247
1768788595090.6372,1364.102564102564,,0,-1,1768788595.0906372
1768788595098.4497,1358.974358974359,,0,-1,1768788595.0984497
1768788595106.2622,1352.3809523809523,,0,-1,1768788595.1062622
1768788595114.0747,1346.5201465201465,,0,-1,1768788595.1140747
1768788595121.8872,1339.92673992674,,0,-1,1768788595.1218872
1768788595129.6997,1335.5311355311355,,0,-1,1768788595.1296997
1768788595137.5122,1334.7985347985348,,0,-1,1768788595.1375122
1768788595145.3247,1334.7985347985348,,0,-1,1768788595.1453247
1768788595153.1372,1339.92673992674,,0,-1,1768788595.1531372
1768788595160.9497,1346.5201465201465,,0,-1,1768788595.1609497
1768788595168.7622,1351.6483516483515,,0,-1,1768788595.1687622
1768788595176.5747,1354.5787545787546,,0,-1,1768788595.1765747
1768788595184.3872,1358.241758241758,,0,-1,1768788595.1843872
1768788595192.1997,1359.7069597069597,,0,-1,1768788595.1921997
1768788595200.0122,1358.241758241758,,0,-1,1768788595.2000122
1768788595207.8247,1357.5091575091574,,0,-1,1768788595.2078247
1768788595215.6372,1358.974358974359,,0,-1,1768788595.2156372
1768788595223.4497,1361.904761904762,,0,-1,1768788595.2234497
1768788595231.2622,1364.102564102564,,0,-1,1768788595.2312622
1768788595239.0747,1364.102564102564,,0,-1,1768788595.2390747
1768788595246.8872,1361.1721611721612,,0,-1,1768788595.2468872
1768788595254.6997,1356.043956043956,,0,-1,1768788595.2546997
1768788595262.5122,1350.9157509157508,,0,-1,1768788595.2625122
1768788595270.3247,1349.4505494505493,,0,-1,1768788595.2703247
1768788595278.1372,1349.4505494505493,,0,-1,1768788595.2781372
1768788595285.9497,1350.9157509157508,,0,-1,1768788595.2859497
1768788595293.7622,1354.5787545787546,,0,-1,1768788595.2937622
1768788595301.5747,1360.4395604395604,,0,-1,1768788595.3015747
1768788595309.3872,1367.032967032967,,0,-1,1768788595.3093872
1768788595317.1997,1368.4981684981683,,0,-1,1768788595.3171997
1768788595325.0122,1364.102564102564,,0,-1,1768788595.3250122
1768788595332.8247,1361.1721611721612,,0,-1,1768788595.3328247
1768788595340.6372,1357.5091575091574,,0,-1,1768788595.3406372
1768788595348.4497,1354.5787545787546,,0,-1,1768788595.3484497
1768788595356.2622,1351.6483516483515,,0,-1,1768788595.3562622
1768788595364.0747,1352.3809523809523,,0,-1,1768788595.3640747
1768788595371.8872,1349.4505494505493,,0,-1,1768788595.3718872
1768788595379.6997,1342.124542124542,,0,-1,1768788595.3796997
1768788595387.5122,1336.263736263736,,0,-1,1768788595.3875122
1768788595395.3247,1328.2051282051282,,0,-1,1768788595.3953247
1768788595403.1372,1317.216117216117,,0,-1,1768788595.4031372
1768788595410.9497,1312.087912087912,,0,-1,1768788595.4109497
1768788595418.7622,1304.0293040293038,,0,-1,1768788595.4187622
1768788595426.5747,1301.098901098901,,0,-1,1768788595.4265747
1768788595434.3872,1295.970695970696,,0,-1,1768788595.4343872
1768788595442.1997,1287.179487179487,,0,-1,1768788595.4421997
1768788595450.0122,1286.4468864468863,,0,-1,1768788595.4500122
1768788595457.8247,1287.179487179487,,0,-1,1768788595.4578247
1768788595465.6372,1286.4468864468863,,0,-1,1768788595.4656372
1768788595473.4497,1288.6446886446886,,0,-1,1768788595.4734497
1768788595481.2622,1294.5054945054944,,0,-1,1768788595.4812622
1768788595489.0747,1294.5054945054944,,0,-1,1768788595.4890747
1768788595496.8872,1298.168498168498,,0,-1,1768788595.4968872
1768788595504.6997,1300.3663003663005,,0,-1,1768788595.5046997
1768788595512.5122,1298.168498168498,,0,-1,1768788595.5125122
1768788595520.3247,1296.7032967032967,,0,-1,1768788595.5203247
1768788595528.1372,1295.2380952380952,,0,-1,1768788595.5281372
1768788595535.9497,1288.6446886446886,,0,-1,1768788595.5359497
1768788595543.7622,1289.3772893772891,,0,-1,1768788595.5437622
1768788595551.5747,1290.10989010989,,0,-1,1768788595.5515747
1768788595559.3872,1289.3772893772891,,0,-1,1768788595.5593872
1768788595567.1997,1293.040293040293,,0,-1,1768788595.5671997
1768788595575.0122,1295.2380952380952,,0,-1,1768788595.5750122
1768788595582.8247,1293.040293040293,,0,-1,1768788595.5828247
1768788595590.6372,1290.10989010989,,0,-1,1768788595.5906372
1768788595598.4497,1284.9816849816848,,0,-1,1768788595.5984497
1768788595606.2622,1273.992673992674,,0,-1,1768788595.6062622
1768788595614.0747,1268.8644688644688,,0,-1,1768788595.6140747
1768788595621.8872,1261.5384615384614,,0,-1,1768788595.6218872
1768788595629.6997,1261.5384615384614,,0,-1,1768788595.6296997
1768788595637.5122,1258.6080586080586,,0,-1,1768788595.6375122
1768788595645.3247,1252.7472527472526,,0,-1,1768788595.6453247
1768788595653.1372,1251.2820512820513,,0,-1,1768788595.6531372
1768788595660.9497,1246.8864468864467,,0,-1,1768788595.6609497
1768788595668.7622,1246.8864468864467,,0,-1,1768788595.6687622
