Shimmer_6815_Timestamp_Unix_CAL,Shimmer_6815_PPG_A13_CAL,Unnamed: 2,inhale,inhale_id,epoch_sec
1768945191990.0513,41.02564102564102,,0,-1,1768945191.9900513
1768945191997.8638,124.54212454212454,,0,-1,1768945191.9978638
1768945192005.6765,218.3150183150183,,0,-1,1768945192.0056765
1768945192013.4888,317.9487179487179,,0,-1,1768945192.0134888
1768945192021.3013,418.3150183150183,,0,-1,1768945192.0213013
1768945192029.1138,512.8205128205128,,0,-1,1768945192.0291138
1768945192036.9265,602.1978021978022,,0,-1,1768945192.0369265
1768945192044.7388,683.5164835164835,,0,-1,1768945192.0447388
1768945192052.5513,756.7765567765567,,0,-1,1768945192.0525513
1768945192060.3638,819.7802197802197,,0,-1,1768945192.0603638
1768945192068.1765,872.5274725274725,,0,-1,1768945192.0681765
1768945192075.9888,916.4835164835164,,0,-1,1768945192.0759888
1768945192083.8013,953.113553113553,,0,-1,1768945192.0838013
1768945192091.6138,983.1501831501832,,0,-1,1768945192.0916138
1768945192099.4265,1007.3260073260072,,0,-1,1768945192.0994265
1768945192107.2388,1032.967032967033,,0,-1,1768945192.1072388
1768945192115.0513,1060.07326007326,,0,-1,1768945192.1150513
1768945192122.8638,1082.051282051282,,0,-1,1768945192.1228638
1768945192130.6765,1101.8315018315018,,0,-1,1768945192.1306765
1768945192138.4888,1123.076923076923,,0,-1,1768945192.1384888
1768945192146.3013,1146.5201465201465,,0,-1,1768945192.1463013
1768945192154.1138,1168.4981684981683,,0,-1,1768945192.1541138
1768945192161.9265,1186.080586080586,,1,0,1768945192.1619265
1768945192169.7388,1203.6630036630036,,1,0,1768945192.1697388
1768945192177.5513,1218.3150183150185,,1,0,1768945192.1775513
1768945192185.3638,1225.6410256410256,,1,0,1768945192.1853638
1768945192193.1765,1229.3040293040292,,1,0,1768945192.1931765
1768945192200.9888,1238.095238095238,,1,0,1768945192.2009888
1768945192208.8013,1249.084249084249,,1,0,1768945192.2088013
1768945192216.6138,1258.6080586080586,,1,0,1768945192.2166138
1768945192224.4265,1265.2014652014652,,1,0,1768945192.2244265
1768945192232.2388,1271.062271062271,,1,0,1768945192.2322388
1768945192240.0513,1275.4578754578754,,1,0,1768945192.2400513
1768945192247.8638,1276.190476190476,,1,0,1768945192.2478638
1768945192255.6765,1277.6556776556777,,1,0,1768945192.2556765
1768945192263.4888,1273.992673992674,,1,0,1768945192.2634888
1768945192271.3013,1270.3296703296703,,1,0,1768945192.2713013
1768945192279.1138,1270.3296703296703,,1,0,1768945192.2791138
1768945192286.9265,1264.4688644688645,,1,0,1768945192.2869265
1768945192294.7388,1260.07326007326,,1,0,1768945192.2947388
1768945192302.5513,1257.875457875458,,1,0,1768945192.3025513
1768945192310.3638,1254.212454212454,,1,0,1768945192.3103638
1768945192318.1765,1254.9450549450548,,1,0,1768945192.3181765
1768945192325.9888,1252.7472527472526,,1,0,1768945192.3259888
1768945192333.8013,1256.4102564102564,,1,0,1768945192.3338013
1768945192341.6138,1258.6080586080586,,1,0,1768945192.3416138
1768945192349.4265,1264.4688644688645,,1,0,1768945192.3494265
1768945192357.2388,1270.3296703296703,,1,0,1768945192.3572388
1768945192365.0513,1274.7252747252746,,1,0,1768945192.3650513
1768945192372.8638,1284.2490842490845,,1,0,1768945192.3728638
1768945192380.6765,1287.9120879120878,,1,0,1768945192.3806765
1768945192388.4888,1294.5054945054944,,1,0,1768945192.3884888
1768945192396.3013,1303.2967032967033,,1,0,1768945192.3963013
1768945192404.1138,1307.6923076923076,,1,0,1768945192.4041138
1768945192411.9265,1313.5531135531137,,1,0,1768945192.4119265
1768945192419.7388,1323.076923076923,,1,0,1768945192.4197388
1768945192427.5513,1328.937728937729,,1,0,1768945192.4275513
1768945192435.3638,1339.92673992674,,1,0,1768945192.4353638
1768945192443.1765,1348.7179487179487,,1,0,1768945192.4431765
1768945192450.9888,1361.1721611721612,,1,0,1768945192.4509888
1768945192458.8013,1366.3003663003662,,1,0,1768945192.4588013
1768945192466.6138,1371.428571428571,,1,0,1768945192.4666138
1768945192474.4265,1374.3589743589744,,1,0,1768945192.4744265
1768945192482.2388,1371.428571428571,,1,0,1768945192.4822388
1768945192490.0513,1372.8937728937728,,1,0,1768945192.4900513
1768945192497.8638,1369.230769230769,,1,0,1768945192.4978638
1768945192505.6765,1364.8351648351647,,1,0,1768945192.5056765
1768945192513.4888,1358.974358974359,,1,0,1768945192.5134888
1768945192521.3013,1356.7765567765566,,1,0,1768945192.5213013
1768945192529.1138,1359.7069597069597,,1,0,1768945192.5291138
1768945192536.9265,1365.5677655677655,,1,0,1768945192.5369265
1768945192544.7388,1373.6263736263736,,1,0,1768945192.5447388
1768945192552.5513,1379.4871794871794,,1,0,1768945192.5525513
1768945192560.3638,1376.5567765567764,,1,0,1768945192.5603638
1768945192568.1765,1374.3589743589744,,1,0,1768945192.5681765
1768945192575.9888,1373.6263736263736,,1,0,1768945192.5759888
1768945192583.8013,1369.230769230769,,1,0,1768945192.5838013
1768945192591.6138,1367.032967032967,,1,0,1768945192.5916138
1768945192599.4265,1366.3003663003662,,1,0,1768945192.5994265
1768945192607.2388,1362.6373626373625,,1,0,1768945192.6072388
1768945192615.0513,1365.5677655677655,,1,0,1768945192.6150513
1768945192622.8638,1361.1721611721612,,1,0,1768945192.6228638
1768945192630.6765,1359.7069597069597,,1,0,1768945192.6306765
1768945192638.4888,1353.113553113553,,1,0,1768945192.6384888
1768945192646.3013,1353.8461538461538,,1,0,1768945192.6463013
1768945192654.1138,1350.18315018315,,1,0,1768945192.6541138
1768945192661.9265,1351.6483516483515,,1,0,1768945192.6619265
1768945192669.7388,1350.9157509157508,,1,0,1768945192.6697388
1768945192677.5513,1354.5787545787546,,1,0,1768945192.6775513
1768945192685.3638,1355.311355311355,,1,0,1768945192.6853638
1768945192693.1765,1358.974358974359,,1,0,1768945192.6931765
1768945192700.9888,1358.241758241758,,1,0,1768945192.7009888
1768945192708.8013,1356.043956043956,,1,0,1768945192.7088013
1768945192716.6138,1353.113553113553,,1,0,1768945192.7166138
1768945192724.4265,1350.18315018315,,1,0,1768945192.7244265
1768945192732.2388,1342.857142857143,,1,0,1768945192.7322388
1768945192740.0513,1339.194139194139,,1,0,1768945192.7400513
1768945192747.8638,1331.135531135531,,1,0,1768945192.7478638
1768945192755.6765,1324.5421245421244,,1,0,1768945192.7556765
1768945192763.4888,1317.9487179487178,,1,0,1768945192.7634888
1768945192771.3013,1315.018315018315,,1,0,1768945192.7713013
1768945192779.1138,1313.5531135531137,,1,0,1768945192.7791138
1768945192786.9265,1319.4139194139193,,1,0,1768945192.7869265
1768945192794.7388,1317.216117216117,,1,0,1768945192.7947388
1768945192802.5513,1317.9487179487178,,1,0,1768945192.8025513
1768945192810.3638,1320.8791208791208,,1,0,1768945192.8103638
1768945192818.1765,1327.4725274725274,,1,0,1768945192.8181765
1768945192825.9888,1328.937728937729,,1,0,1768945192.8259888
1768945192833.8013,1331.8681318681315,,1,0,1768945192.8338013
1768945192841.6138,1334.7985347985348,,1,0,1768945192.8416138
1768945192849.4265,1338.4615384615383,,1,0,1768945192.8494265
1768945192857.2388,1337.7289377289376,,1,0,1768945192.8572388
1768945192865.0513,1339.92673992674,,1,0,1768945192.8650513
1768945192872.8638,1335.5311355311355,,1,0,1768945192.8728638
1768945192880.6765,1335.5311355311355,,1,0,1768945192.8806765
1768945192888.4888,1331.135531135531,,1,0,1768945192.8884888
1768945192896.3013,1331.135531135531,,1,0,1768945192.8963013
1768945192904.1138,1331.135531135531,,1,0,1768945192.9041138
1768945192911.9265,1328.937728937729,,1,0,1768945192.9119265
1768945192919.7388,1326.739926739927,,1,0,1768945192.9197388
1768945192927.5513,1320.14652014652,,1,0,1768945192.9275513
1768945192935.3638,1317.216117216117,,1,0,1768945192.9353638
1768945192943.1765,1311.3553113553112,,1,0,1768945192.9431765
1768945192950.9888,1306.227106227106,,1,0,1768945192.9509888
1768945192958.8013,1309.1575091575091,,1,0,1768945192.9588013
1768945192966.6138,1311.3553113553112,,1,0,1768945192.9666138
1768945192974.4265,1314.2857142857142,,1,0,1768945192.9744265
1768945192982.2388,1320.8791208791208,,1,0,1768945192.9822388
1768945192990.0513,1323.076923076923,,1,0,1768945192.9900513
1768945192997.8638,1322.3443223443223,,1,0,1768945192.9978638
1768945193005.6765,1316.4835164835165,,1,0,1768945193.0056765
1768945193013.4888,1306.227106227106,,1,0,1768945193.0134888
1768945193021.3013,1301.8315018315018,,1,0,1768945193.0213013
1768945193029.1138,1299.6336996336995,,1,0,1768945193.0291138
1768945193036.9265,1304.0293040293038,,1,0,1768945193.0369265
1768945193044.7388,1306.9597069597069,,1,0,1768945193.0447388
1768945193052.5513,1315.018315018315,,1,0,1768945193.0525513
1768945193060.3638,1318.6813186813183,,1,0,1768945193.0603638
1768945193068.1765,1323.076923076923,,1,0,1768945193.0681765
1768945193075.9888,1323.076923076923,,1,0,1768945193.0759888
1768945193083.8013,1322.3443223443223,,1,0,1768945193.0838013
1768945193091.6138,1323.8095238095236,,1,0,1768945193.0916138
1768945193099.4265,1322.3443223443223,,1,0,1768945193.0994265
1768945193107.2388,1316.4835164835165,,1,0,1768945193.1072388
1768945193115.0513,1312.087912087912,,1,0,1768945193.1150513
1768945193122.8638,1309.1575091575091,,1,0,1768945193.1228638
1768945193130.6765,1306.227106227106,,1,0,1768945193.1306765
1768945193138.4888,1304.0293040293038,,1,0,1768945193.1384888
1768945193146.3013,1309.1575091575091,,1,0,1768945193.1463013
1768945193154.1138,1320.14652014652,,1,0,1768945193.1541138
1768945193161.9265,1331.135531135531,,1,0,1768945193.1619265
1768945193169.7388,1339.92673992674,,1,0,1768945193.1697388
1768945193177.5513,1347.2527472527472,,1,0,1768945193.1775513
1768945193185.3638,1353.113553113553,,1,0,1768945193.1853638
1768945193193.1765,1358.241758241758,,1,0,1768945193.1931765
1768945193200.9888,1361.1721611721612,,1,0,1768945193.2009888
1768945193208.8013,1363.3699633699632,,1,0,1768945193.2088013
1768945193216.6138,1369.9633699633698,,1,0,1768945193.2166138
1768945193224.4265,1375.8241758241757,,1,0,1768945193.2244265
1768945193232.2388,1385.3479853479853,,1,0,1768945193.2322388
1768945193240.0513,1391.941391941392,,1,0,1768945193.2400513
1768945193247.8638,1396.3369963369962,,1,0,1768945193.2478638
1768945193255.6765,1400.0,,1,0,1768945193.2556765
1768945193263.4888,1396.3369963369962,,1,0,1768945193.2634888
1768945193271.3013,1394.8717948717947,,1,0,1768945193.2713013
1768945193279.1138,1393.4065934065934,,1,0,1768945193.2791138
1768945193286.9265,1386.080586080586,,1,0,1768945193.2869265
1768945193294.7388,1380.952380952381,,1,0,1768945193.2947388
1768945193302.5513,1377.2893772893772,,1,0,1768945193.3025513
1768945193310.3638,1370.6959706959706,,1,0,1768945193.3103638
1768945193318.1765,1366.3003663003662,,1,0,1768945193.3181765
1768945193325.9888,1362.6373626373625,,1,0,1768945193.3259888
1768945193333.8013,1358.241758241758,,1,0,1768945193.3338013
1768945193341.6138,1357.5091575091574,,1,0,1768945193.3416138
1768945193349.4265,1354.5787545787546,,1,0,1768945193.3494265
1768945193357.2388,1350.9157509157508,,1,0,1768945193.3572388
1768945193365.0513,1347.985347985348,,1,0,1768945193.3650513
1768945193372.8638,1342.857142857143,,1,0,1768945193.3728638
1768945193380.6765,1339.92673992674,,1,0,1768945193.3806765
1768945193388.4888,1334.7985347985348,,1,0,1768945193.3884888
1768945193396.3013,1328.937728937729,,1,0,1768945193.3963013
1768945193404.1138,1323.076923076923,,1,0,1768945193.4041138
1768945193411.9265,1317.216117216117,,1,0,1768945193.4119265
1768945193419.7388,1315.7509157509155,,1,0,1768945193.4197388
1768945193427.5513,1320.8791208791208,,1,0,1768945193.4275513
1768945193435.3638,1332.6007326007325,,1,0,1768945193.4353638
1768945193443.1765,1340.6593406593406,,1,0,1768945193.4431765
1768945193450.9888,1345.054945054945,,1,0,1768945193.4509888
1768945193458.8013,1352.3809523809523,,1,0,1768945193.4588013
1768945193466.6138,1356.043956043956,,1,0,1768945193.4666138
1768945193474.4265,1360.4395604395604,,1,0,1768945193.4744265
1768945193482.2388,1363.3699633699632,,1,0,1768945193.4822388
1768945193490.0513,1361.904761904762,,1,0,1768945193.4900513
1768945193497.8638,1357.5091575091574,,1,0,1768945193.4978638
1768945193505.6765,1354.5787545787546,,1,0,1768945193.5056765
1768945193513.4888,1356.7765567765566,,1,0,1768945193.5134888
1768945193521.3013,1354.5787545787546,,1,0,1768945193.5213013
1768945193529.1138,1349.4505494505493,,1,0,1768945193.5291138
1768945193536.9265,1345.054945054945,,1,0,1768945193.5369265
1768945193544.7388,1339.92673992674,,1,0,1768945193.5447388
1768945193552.5513,1339.194139194139,,1,0,1768945193.5525513
1768945193560.3638,1335.5311355311355,,1,0,1768945193.5603638
1768945193568.1765,1330.4029304029302,,1,0,1768945193.5681765
1768945193575.9888,1323.8095238095236,,1,0,1768945193.5759888
1768945193583.8013,1315.7509157509155,,1,0,1768945193.5838013
1768945193591.6138,1309.1575091575091,,1,0,1768945193.5916138
1768945193599.4265,1305.4945054945051,,1,0,1768945193.5994265
1768945193607.2388,1310.6227106227104,,1,0,1768945193.6072388
1768945193615.0513,1317.9487179487178,,1,0,1768945193.6150513
1768945193622.8638,1323.076923076923,,1,0,1768945193.6228638
1768945193630.6765,1324.5421245421244,,1,0,1768945193.6306765
1768945193638.4888,1323.8095238095236,,1,0,1768945193.6384888
1768945193646.3013,1321.6117216117216,,1,0,1768945193.6463013
1768945193654.1138,1320.14652014652,,1,0,1768945193.6541138
1768945193661.9265,1316.4835164835165,,1,0,1768945193.6619265
1768945193669.7388,1309.1575091575091,,1,0,1768945193.6697388
1768945193677.5513,1301.8315018315018,,1,0,1768945193.6775513
1768945193685.3638,1300.3663003663005,,1,0,1768945193.6853638
1768945193693.1765,1300.3663003663005,,1,0,1768945193.6931765
1768945193700.9888,1300.3663003663005,,1,0,1768945193.7009888
1768945193708.8013,1301.098901098901,,1,0,1768945193.7088013
1768945193716.6138,1309.1575091575091,,1,0,1768945193.7166138
1768945193724.4265,1318.6813186813183,,1,0,1768945193.7244265
1768945193732.2388,1326.007326007326,,1,0,1768945193.7322388
1768945193740.0513,1328.937728937729,,1,0,1768945193.7400513
1768945193747.8638,1334.065934065934,,1,0,1768945193.7478638
1768945193755.6765,1337.7289377289376,,1,0,1768945193.7556765
1768945193763.4888,1336.263736263736,,1,0,1768945193.7634888
1768945193771.3013,1336.263736263736,,1,0,1768945193.7713013
1768945193779.1138,1334.7985347985348,,1,0,1768945193.7791138
1768945193786.9265,1334.065934065934,,1,0,1768945193.7869265
1768945193794.7388,1334.7985347985348,,1,0,1768945193.7947388
1768945193802.5513,1334.065934065934,,1,0,1768945193.8025513
1768945193810.3638,1332.6007326007325,,1,0,1768945193.8103638
1768945193818.1765,1333.3333333333333,,1,0,1768945193.8181765
1768945193825.9888,1327.4725274725274,,1,0,1768945193.8259888
1768945193833.8013,1319.4139194139193,,1,0,1768945193.8338013
1768945193841.6138,1315.018315018315,,1,0,1768945193.8416138
1768945193849.4265,1306.227106227106,,1,0,1768945193.8494265
1768945193857.2388,1302.5641025641023,,1,0,1768945193.8572388
1768945193865.0513,1295.970695970696,,1,0,1768945193.8650513
1768945193872.8638,1295.2380952380952,,1,0,1768945193.8728638
1768945193880.6765,1297.4358974358977,,1,0,1768945193.8806765
1768945193888.4888,1300.3663003663005,,1,0,1768945193.8884888
1768945193896.3013,1303.2967032967033,,1,0,1768945193.8963013
1768945193904.1138,1306.227106227106,,1,0,1768945193.9041138
1768945193911.9265,1307.6923076923076,,1,0,1768945193.9119265
1768945193919.7388,1304.0293040293038,,1,0,1768945193.9197388
1768945193927.5513,1302.5641025641023,,1,0,1768945193.9275513
1768945193935.3638,1299.6336996336995,,1,0,1768945193.9353638
1768945193943.1765,1298.168498168498,,1,0,1768945193.9431765
1768945193950.9888,1299.6336996336995,,1,0,1768945193.9509888
1768945193958.8013,1300.3663003663005,,1,0,1768945193.9588013
1768945193966.6138,1302.5641025641023,,1,0,1768945193.9666138
1768945193974.4265,1307.6923076923076,,0,-1,1768945193.9744265
1768945193982.2388,1309.1575091575091,,0,-1,1768945193.9822388
1768945193990.0513,1316.4835164835165,,0,-1,1768945193.9900513
1768945193997.8638,1325.2747252747251,,0,-1,1768945193.9978638
1768945194005.6765,1336.9963369963368,,0,-1,1768945194.0056765
1768945194013.4888,1347.985347985348,,0,-1,1768945194.0134888
1768945194021.3013,1358.241758241758,,0,-1,1768945194.0213013
1768945194029.1138,1361.904761904762,,0,-1,1768945194.0291138
1768945194036.9265,1364.102564102564,,0,-1,1768945194.0369265
1768945194044.7388,1364.8351648351647,,0,-1,1768945194.0447388
1768945194052.5513,1365.5677655677655,,0,-1,1768945194.0525513
1768945194060.3638,1361.1721611721612,,0,-1,1768945194.0603638
1768945194068.1765,1358.241758241758,,0,-1,1768945194.0681765
1768945194075.9888,1355.311355311355,,0,-1,1768945194.0759888
1768945194083.8013,1356.043956043956,,0,-1,1768945194.0838013
1768945194091.6138,1361.904761904762,,0,-1,1768945194.0916138
1768945194099.4265,1370.6959706959706,,0,-1,1768945194.0994265
1768945194107.2388,1382.4175824175825,,0,-1,1768945194.1072388
1768945194115.0513,1393.4065934065934,,0,-1,1768945194.1150513
1768945194122.8638,1399.2673992673992,,0,-1,1768945194.1228638
1768945194130.6765,1398.5347985347985,,0,-1,1768945194.1306765
1768945194138.4888,1398.5347985347985,,0,-1,1768945194.1384888
1768945194146.3013,1396.3369963369962,,0,-1,1768945194.1463013
1768945194154.1138,1391.941391941392,,0,-1,1768945194.1541138
1768945194161.9265,1388.278388278388,,0,-1,1768945194.1619265
1768945194169.7388,1378.021978021978,,0,-1,1768945194.1697388
1768945194177.5513,1371.428571428571,,0,-1,1768945194.1775513
1768945194185.3638,1361.904761904762,,0,-1,1768945194.1853638
1768945194193.1765,1354.5787545787546,,0,-1,1768945194.1931765
1768945194200.9888,1350.18315018315,,0,-1,1768945194.2009888
1768945194208.8013,1346.5201465201465,,0,-1,1768945194.2088013
1768945194216.6138,1344.3223443223442,,0,-1,1768945194.2166138
1768945194224.4265,1344.3223443223442,,0,-1,1768945194.2244265
1768945194232.2388,1347.985347985348,,0,-1,1768945194.2322388
1768945194240.0513,1352.3809523809523,,0,-1,1768945194.2400513
1768945194247.8638,1354.5787545787546,,0,-1,1768945194.2478638
1768945194255.6765,1354.5787545787546,,0,-1,1768945194.2556765
1768945194263.4888,1356.043956043956,,0,-1,1768945194.2634888
1768945194271.3013,1352.3809523809523,,0,-1,1768945194.2713013
1768945194279.1138,1353.8461538461538,,0,-1,1768945194.2791138
1768945194286.9265,1351.6483516483515,,0,-1,1768945194.2869265
1768945194294.7388,1348.7179487179487,,0,-1,1768945194.2947388
1768945194302.5513,1348.7179487179487,,0,-1,1768945194.3025513
1768945194310.3638,1347.2527472527472,,0,-1,1768945194.3103638
1768945194318.1765,1343.5897435897434,,0,-1,1768945194.3181765
1768945194325.9888,1345.7875457875457,,0,-1,1768945194.3259888
1768945194333.8013,1347.2527472527472,,0,-1,1768945194.3338013
1768945194341.6138,1348.7179487179487,,0,-1,1768945194.3416138
1768945194349.4265,1349.4505494505493,,0,-1,1768945194.3494265
1768945194357.2388,1356.7765567765566,,0,-1,1768945194.3572388
1768945194365.0513,1362.6373626373625,,0,-1,1768945194.3650513
1768945194372.8638,1368.4981684981683,,0,-1,1768945194.3728638
1768945194380.6765,1375.091575091575,,0,-1,1768945194.3806765
1768945194388.4888,1386.8131868131868,,0,-1,1768945194.3884888
1768945194396.3013,1392.6739926739926,,0,-1,1768945194.3963013
1768945194404.1138,1394.139194139194,,0,-1,1768945194.4041138
1768945194411.9265,1394.8717948717947,,0,-1,1768945194.4119265
1768945194419.7388,1389.0109890109889,,0,-1,1768945194.4197388
1768945194427.5513,1378.7545787545787,,0,-1,1768945194.4275513
1768945194435.3638,1367.032967032967,,0,-1,1768945194.4353638
1768945194443.1765,1353.113553113553,,0,-1,1768945194.4431765
1768945194450.9888,1336.9963369963368,,0,-1,1768945194.4509888
1768945194458.8013,1325.2747252747251,,0,-1,1768945194.4588013
1768945194466.6138,1315.018315018315,,0,-1,1768945194.4666138
1768945194474.4265,1311.3553113553112,,0,-1,1768945194.4744265
1768945194482.2388,1313.5531135531137,,0,-1,1768945194.4822388
1768945194490.0513,1317.9487179487178,,0,-1,1768945194.4900513
1768945194497.8638,1324.5421245421244,,0,-1,1768945194.4978638
1768945194505.6765,1330.4029304029302,,0,-1,1768945194.5056765
1768945194513.4888,1331.135531135531,,0,-1,1768945194.5134888
1768945194521.3013,1331.135531135531,,0,-1,1768945194.5213013
1768945194529.1138,1330.4029304029302,,0,-1,1768945194.5291138
1768945194536.9265,1328.937728937729,,0,-1,1768945194.5369265
1768945194544.7388,1331.8681318681315,,0,-1,1768945194.5447388
1768945194552.5513,1333.3333333333333,,0,-1,1768945194.5525513
1768945194560.3638,1326.007326007326,,0,-1,1768945194.5603638
1768945194568.1765,1318.6813186813183,,0,-1,1768945194.5681765
1768945194575.9888,1308.4249084249084,,0,-1,1768945194.5759888
1768945194583.8013,1305.4945054945051,,0,-1,1768945194.5838013
1768945194591.6138,1305.4945054945051,,0,-1,1768945194.5916138
1768945194599.4265,1306.227106227106,,0,-1,1768945194.5994265
1768945194607.2388,1306.227106227106,,0,-1,1768945194.6072388
1768945194615.0513,1306.9597069597069,,0,-1,1768945194.6150513
1768945194622.8638,1304.7619047619046,,0,-1,1768945194.6228638
1768945194630.6765,1304.0293040293038,,0,-1,1768945194.6306765
1768945194638.4888,1307.6923076923076,,0,-1,1768945194.6384888
1768945194646.3013,1310.6227106227104,,0,-1,1768945194.6463013
1768945194654.1443,1313.5531135531137,,0,-1,1768945194.6541443
1768945194661.9265,1317.9487179487178,,0,-1,1768945194.6619265
1768945194669.7388,1320.8791208791208,,0,-1,1768945194.6697388
1768945194677.5513,1322.3443223443223,,0,-1,1768945194.6775513
1768945194685.3638,1319.4139194139193,,0,-1,1768945194.6853638
1768945194693.1765,1320.8791208791208,,0,-1,1768945194.6931765
1768945194700.9888,1320.8791208791208,,0,-1,1768945194.7009888
1768945194708.8013,1322.3443223443223,,0,-1,1768945194.7088013
1768945194716.6138,1321.6117216117216,,0,-1,1768945194.7166138
1768945194724.4265,1322.3443223443223,,0,-1,1768945194.7244265
1768945194732.2388,1317.9487179487178,,0,-1,1768945194.7322388
1768945194740.0513,1317.216117216117,,0,-1,1768945194.7400513
1768945194747.8638,1316.4835164835165,,0,-1,1768945194.7478638
1768945194755.6765,1319.4139194139193,,0,-1,1768945194.7556765
1768945194763.4888,1329.6703296703297,,0,-1,1768945194.7634888
1768945194771.3013,1336.9963369963368,,0,-1,1768945194.7713013
1768945194779.1138,1343.5897435897434,,0,-1,1768945194.7791138
1768945194786.9265,1356.7765567765566,,0,-1,1768945194.7869265
1768945194794.7388,1366.3003663003662,,0,-1,1768945194.7947388
1768945194802.5513,1381.6849816849815,,0,-1,1768945194.8025513
1768945194810.3638,1391.2087912087911,,0,-1,1768945194.8103638
1768945194818.1765,1400.7326007326003,,0,-1,1768945194.8181765
1768945194825.9888,1406.5934065934066,,0,-1,1768945194.8259888
1768945194833.8013,1405.8608058608058,,0,-1,1768945194.8338013
1768945194841.6138,1405.8608058608058,,0,-1,1768945194.8416138
1768945194849.4265,1399.2673992673992,,0,-1,1768945194.8494265
1768945194857.2388,1391.2087912087911,,0,-1,1768945194.8572388
1768945194865.0513,1383.150183150183,,0,-1,1768945194.8650513
1768945194872.8638,1373.6263736263736,,0,-1,1768945194.8728638
1768945194880.6765,1361.1721611721612,,0,-1,1768945194.8806765
1768945194888.4888,1353.113553113553,,0,-1,1768945194.8884888
1768945194896.3013,1345.7875457875457,,0,-1,1768945194.8963013
1768945194904.1138,1336.263736263736,,0,-1,1768945194.9041138
1768945194911.9265,1334.065934065934,,0,-1,1768945194.9119265
1768945194919.7388,1336.263736263736,,0,-1,1768945194.9197388
1768945194927.5513,1344.3223443223442,,0,-1,1768945194.9275513
1768945194935.3638,1350.9157509157508,,0,-1,1768945194.9353638
1768945194943.1765,1360.4395604395604,,0,-1,1768945194.9431765
1768945194950.9888,1368.4981684981683,,0,-1,1768945194.9509888
1768945194958.8013,1371.428571428571,,0,-1,1768945194.9588013
1768945194966.6138,1369.9633699633698,,0,-1,1768945194.9666138
1768945194974.4265,1369.230769230769,,0,-1,1768945194.9744265
1768945194982.2388,1361.1721611721612,,0,-1,1768945194.9822388
1768945194990.0513,1350.9157509157508,,0,-1,1768945194.9900513
1768945194997.8638,1345.7875457875457,,0,-1,1768945194.9978638
1768945195005.6765,1344.3223443223442,,0,-1,1768945195.0056765
1768945195013.4888,1350.18315018315,,0,-1,1768945195.0134888
1768945195021.3013,1361.904761904762,,0,-1,1768945195.0213013
1768945195029.1138,1373.6263736263736,,0,-1,1768945195.0291138
1768945195036.9265,1380.952380952381,,0,-1,1768945195.0369265
1768945195044.7388,1389.7435897435896,,0,-1,1768945195.0447388
1768945195052.5513,1389.7435897435896,,0,-1,1768945195.0525513
1768945195060.3638,1393.4065934065934,,0,-1,1768945195.0603638
1768945195068.1765,1389.7435897435896,,0,-1,1768945195.0681765
1768945195075.9888,1386.8131868131868,,0,-1,1768945195.0759888
1768945195083.8013,1383.150183150183,,0,-1,1768945195.0838013
1768945195091.6138,1373.6263736263736,,0,-1,1768945195.0916138
1768945195099.4265,1367.7655677655678,,0,-1,1768945195.0994265
1768945195107.2388,1364.8351648351647,,0,-1,1768945195.1072388
1768945195115.0513,1367.032967032967,,0,-1,1768945195.1150513
1768945195122.8638,1373.6263736263736,,0,-1,1768945195.1228638
1768945195130.6765,1381.6849816849815,,0,-1,1768945195.1306765
1768945195138.4888,1397.069597069597,,0,-1,1768945195.1384888
1768945195146.3013,1420.5128205128203,,0,-1,1768945195.1463013
1768945195154.1138,1446.153846153846,,0,-1,1768945195.1541138
1768945195161.9265,1481.3186813186812,,0,-1,1768945195.1619265
1768945195169.7388,1517.216117216117,,0,-1,1768945195.1697388
1768945195177.5513,1556.043956043956,,0,-1,1768945195.1775513
1768945195185.3638,1582.4175824175825,,0,-1,1768945195.1853638
1768945195193.1765,1602.197802197802,,0,-1,1768945195.1931765
1768945195200.9888,1613.186813186813,,0,-1,1768945195.2009888
1768945195208.8013,1606.5934065934066,,0,-1,1768945195.2088013
1768945195216.6138,1589.0109890109889,,0,-1,1768945195.2166138
1768945195224.4265,1566.3003663003662,,0,-1,1768945195.2244265
1768945195232.2388,1536.9963369963368,,0,-1,1768945195.2322388
1768945195240.0513,1513.5531135531137,,0,-1,1768945195.2400513
1768945195247.8638,1490.8424908424906,,0,-1,1768945195.2478638
1768945195255.6765,1474.7252747252746,,0,-1,1768945195.2556765
1768945195263.4888,1454.9450549450548,,0,-1,1768945195.2634888
1768945195271.3013,1440.29304029304,,0,-1,1768945195.2713013
1768945195279.1138,1421.9780219780218,,0,-1,1768945195.2791138
1768945195286.9265,1408.7912087912086,,0,-1,1768945195.2869265
1768945195294.7388,1395.6043956043954,,0,-1,1768945195.2947388
1768945195302.5513,1383.8827838827838,,0,-1,1768945195.3025513
1768945195310.3638,1377.2893772893772,,0,-1,1768945195.3103638
1768945195318.1765,1369.9633699633698,,0,-1,1768945195.3181765
1768945195325.9888,1366.3003663003662,,0,-1,1768945195.3259888
1768945195333.8013,1360.4395604395604,,0,-1,1768945195.3338013
1768945195341.6138,1357.5091575091574,,0,-1,1768945195.3416138
1768945195349.4265,1353.113553113553,,0,-1,1768945195.3494265
1768945195357.2388,1356.043956043956,,0,-1,1768945195.3572388
1768945195365.0513,1356.043956043956,,0,-1,1768945195.3650513
1768945195372.8638,1355.311355311355,,0,-1,1768945195.3728638
1768945195380.6765,1360.4395604395604,,0,-1,1768945195.3806765
1768945195388.4888,1361.904761904762,,0,-1,1768945195.3884888
1768945195396.3013,1364.8351648351647,,0,-1,1768945195.3963013
1768945195404.1138,1363.3699633699632,,0,-1,1768945195.4041138
1768945195411.9265,1360.4395604395604,,0,-1,1768945195.4119265
1768945195419.7388,1359.7069597069597,,0,-1,1768945195.4197388
1768945195427.5513,1356.043956043956,,0,-1,1768945195.4275513
1768945195435.3638,1355.311355311355,,0,-1,1768945195.4353638
1768945195443.1765,1358.241758241758,,0,-1,1768945195.4431765
1768945195450.9888,1363.3699633699632,,0,-1,1768945195.4509888
1768945195458.8013,1377.2893772893772,,0,-1,1768945195.4588013
1768945195466.6138,1388.278388278388,,0,-1,1768945195.4666138
1768945195474.4265,1402.9304029304028,,0,-1,1768945195.4744265
1768945195482.2388,1416.117216117216,,0,-1,1768945195.4822388
1768945195490.0513,1427.106227106227,,0,-1,1768945195.4900513
1768945195497.8638,1438.095238095238,,0,-1,1768945195.4978638
1768945195505.6765,1448.3516483516482,,0,-1,1768945195.5056765
1768945195513.4888,1457.142857142857,,0,-1,1768945195.5134888
1768945195521.3013,1457.875457875458,,0,-1,1768945195.5213013
1768945195529.1138,1451.2820512820513,,0,-1,1768945195.5291138
1768945195536.9265,1437.362637362637,,0,-1,1768945195.5369265
1768945195544.7388,1416.8498168498168,,0,-1,1768945195.5447388
1768945195552.5513,1395.6043956043954,,0,-1,1768945195.5525513
1768945195560.3638,1371.428571428571,,0,-1,1768945195.5603638
1768945195568.1765,1349.4505494505493,,0,-1,1768945195.5681765
1768945195575.9888,1330.4029304029302,,0,-1,1768945195.5759888
1768945195583.8013,1314.2857142857142,,0,-1,1768945195.5838013
1768945195591.6138,1301.8315018315018,,0,-1,1768945195.5916138
1768945195599.4265,1298.9010989010987,,0,-1,1768945195.5994265
1768945195607.2388,1306.227106227106,,0,-1,1768945195.6072388
1768945195615.0513,1320.14652014652,,0,-1,1768945195.6150513
1768945195622.8638,1345.054945054945,,0,-1,1768945195.6228638
1768945195630.6765,1371.428571428571,,0,-1,1768945195.6306765
1768945195638.4888,1401.4652014652013,,0,-1,1768945195.6384888
1768945195646.3013,1430.03663003663,,0,-1,1768945195.6463013
1768945195654.1138,1461.5384615384614,,0,-1,1768945195.6541138
1768945195661.9265,1485.7142857142856,,0,-1,1768945195.6619265
1768945195669.7388,1507.6923076923076,,0,-1,1768945195.6697388
1768945195677.5513,1530.4029304029302,,0,-1,1768945195.6775513
1768945195685.3638,1546.5201465201465,,0,-1,1768945195.6853638
1768945195693.1765,1558.241758241758,,0,-1,1768945195.6931765
1768945195700.9888,1569.9633699633698,,0,-1,1768945195.7009888
1768945195708.8013,1572.8937728937728,,0,-1,1768945195.7088013
1768945195716.6138,1574.3589743589744,,0,-1,1768945195.7166138
1768945195724.4265,1575.8241758241757,,0,-1,1768945195.7244265
1768945195732.2388,1567.7655677655678,,0,-1,1768945195.7322388
1768945195740.0513,1559.7069597069597,,0,-1,1768945195.7400513
1768945195747.8638,1540.6593406593406,,0,-1,1768945195.7478638
1768945195755.6765,1517.9487179487178,,0,-1,1768945195.7556765
1768945195763.4888,1499.6336996336995,,0,-1,1768945195.7634888
1768945195771.3013,1487.9120879120878,,0,-1,1768945195.7713013
1768945195779.1138,1481.3186813186812,,0,-1,1768945195.7791138
1768945195786.9265,1484.9816849816848,,0,-1,1768945195.7869265
1768945195794.7388,1487.9120879120878,,0,-1,1768945195.7947388
1768945195802.5513,1492.3076923076922,,0,-1,1768945195.8025513
1768945195810.3638,1491.5750915750914,,0,-1,1768945195.8103638
1768945195818.1765,1493.7728937728937,,0,-1,1768945195.8181765
1768945195825.9888,1496.7032967032967,,0,-1,1768945195.8259888
1768945195833.8013,1493.040293040293,,0,-1,1768945195.8338013
1768945195841.6138,1495.970695970696,,0,-1,1768945195.8416138
1768945195849.4265,1498.168498168498,,0,-1,1768945195.8494265
1768945195857.2388,1505.4945054945051,,0,-1,1768945195.8572388
1768945195865.0513,1509.89010989011,,0,-1,1768945195.8650513
1768945195872.8638,1520.14652014652,,0,-1,1768945195.8728638
1768945195880.6765,1523.8095238095236,,0,-1,1768945195.8806765
1768945195888.4888,1525.2747252747251,,0,-1,1768945195.8884888
1768945195896.3013,1528.2051282051282,,0,-1,1768945195.8963013
1768945195904.1138,1525.2747252747251,,0,-1,1768945195.9041138
1768945195911.9265,1513.5531135531137,,0,-1,1768945195.9119265
1768945195919.7388,1501.098901098901,,0,-1,1768945195.9197388
1768945195927.5513,1481.3186813186812,,0,-1,1768945195.9275513
1768945195935.3638,1463.7362637362637,,0,-1,1768945195.9353638
1768945195943.1765,1448.3516483516482,,0,-1,1768945195.9431765
1768945195950.9888,1432.9670329670328,,0,-1,1768945195.9509888
1768945195958.8013,1424.9084249084249,,0,-1,1768945195.9588013
1768945195966.6138,1421.9780219780218,,0,-1,1768945195.9666138
1768945195974.4265,1422.7106227106226,,0,-1,1768945195.9744265
1768945195982.2388,1427.8388278388277,,0,-1,1768945195.9822388
1768945195990.0513,1434.4322344322345,,0,-1,1768945195.9900513
1768945195997.8638,1443.2234432234432,,0,-1,1768945195.9978638
1768945196005.6765,1449.8168498168498,,0,-1,1768945196.0056765
1768945196013.4888,1452.7472527472526,,0,-1,1768945196.0134888
1768945196021.3013,1451.2820512820513,,0,-1,1768945196.0213013
1768945196029.1138,1448.3516483516482,,0,-1,1768945196.0291138
1768945196036.9265,1446.153846153846,,0,-1,1768945196.0369265
1768945196044.7388,1446.153846153846,,0,-1,1768945196.0447388
1768945196052.5513,1448.3516483516482,,0,-1,1768945196.0525513
1768945196060.3638,1449.8168498168498,,0,-1,1768945196.0603638
1768945196068.1765,1451.2820512820513,,0,-1,1768945196.0681765
1768945196075.9888,1452.014652014652,,0,-1,1768945196.0759888
1768945196083.8013,1449.8168498168498,,0,-1,1768945196.0838013
1768945196091.6138,1449.084249084249,,0,-1,1768945196.0916138
1768945196099.4265,1446.8864468864467,,0,-1,1768945196.0994265
1768945196107.2388,1442.4908424908424,,0,-1,1768945196.1072388
1768945196115.0513,1433.6996336996335,,0,-1,1768945196.1150513
1768945196122.8638,1423.4432234432234,,0,-1,1768945196.1228638
1768945196130.6765,1413.1868131868132,,0,-1,1768945196.1306765
1768945196138.4888,1401.4652014652013,,0,-1,1768945196.1384888
1768945196146.3013,1388.278388278388,,0,-1,1768945196.1463013
1768945196154.1443,1375.091575091575,,0,-1,1768945196.1541443
1768945196161.9265,1362.6373626373625,,0,-1,1768945196.1619265
1768945196169.7388,1352.3809523809523,,0,-1,1768945196.1697388
1768945196177.5513,1342.857142857143,,0,-1,1768945196.1775513
1768945196185.3638,1333.3333333333333,,0,-1,1768945196.1853638
1768945196193.1765,1327.4725274725274,,0,-1,1768945196.1931765
1768945196200.9888,1326.739926739927,,0,-1,1768945196.2009888
1768945196208.8013,1331.8681318681315,,0,-1,1768945196.2088013
1768945196216.6138,1345.7875457875457,,0,-1,1768945196.2166138
1768945196224.4265,1364.102564102564,,0,-1,1768945196.2244265
1768945196232.2388,1383.150183150183,,0,-1,1768945196.2322388
1768945196240.0513,1400.7326007326003,,0,-1,1768945196.2400513
1768945196247.8638,1412.4542124542124,,0,-1,1768945196.2478638
1768945196255.6765,1419.047619047619,,0,-1,1768945196.2556765
1768945196263.4888,1420.5128205128203,,0,-1,1768945196.2634888
1768945196271.3013,1416.117216117216,,0,-1,1768945196.2713013
1768945196279.1138,1409.5238095238094,,0,-1,1768945196.2791138
1768945196286.9265,1404.3956043956043,,0,-1,1768945196.2869265
1768945196294.7388,1402.197802197802,,0,-1,1768945196.2947388
1768945196302.5513,1400.0,,0,-1,1768945196.3025513
1768945196310.3638,1393.4065934065934,,0,-1,1768945196.3103638
1768945196318.1765,1382.4175824175825,,0,-1,1768945196.3181765
1768945196325.9888,1370.6959706959706,,0,-1,1768945196.3259888
1768945196333.8013,1356.7765567765566,,0,-1,1768945196.3338013
1768945196341.6138,1344.3223443223442,,0,-1,1768945196.3416138
1768945196349.4265,1331.135531135531,,0,-1,1768945196.3494265
1768945196357.2388,1323.8095238095236,,0,-1,1768945196.3572388
1768945196365.0513,1322.3443223443223,,0,-1,1768945196.3650513
1768945196372.8638,1325.2747252747251,,0,-1,1768945196.3728638
1768945196380.6765,1334.7985347985348,,0,-1,1768945196.3806765
1768945196388.4888,1348.7179487179487,,0,-1,1768945196.3884888
1768945196396.3013,1364.8351648351647,,0,-1,1768945196.3963013
1768945196404.1138,1380.952380952381,,0,-1,1768945196.4041138
1768945196411.9265,1398.5347985347985,,0,-1,1768945196.4119265
1768945196419.7388,1420.5128205128203,,0,-1,1768945196.4197388
1768945196427.5513,1442.4908424908424,,0,-1,1768945196.4275513
1768945196435.3638,1465.201465201465,,0,-1,1768945196.4353638
1768945196443.1765,1487.9120879120878,,0,-1,1768945196.4431765
1768945196450.9888,1504.7619047619046,,0,-1,1768945196.4509888
1768945196458.8013,1518.6813186813183,,0,-1,1768945196.4588013
1768945196466.6138,1531.135531135531,,0,-1,1768945196.4666138
1768945196474.4265,1541.3919413919414,,0,-1,1768945196.4744265
1768945196482.2388,1551.6483516483515,,0,-1,1768945196.4822388
1768945196490.0513,1556.043956043956,,0,-1,1768945196.4900513
1768945196497.8638,1556.7765567765566,,0,-1,1768945196.4978638
1768945196505.6765,1556.043956043956,,0,-1,1768945196.5056765
1768945196513.4888,1550.9157509157508,,0,-1,1768945196.5134888
1768945196521.3013,1547.985347985348,,0,-1,1768945196.5213013
1768945196529.1138,1542.857142857143,,0,-1,1768945196.5291138
1768945196536.9265,1535.5311355311355,,0,-1,1768945196.5369265
1768945196544.7388,1521.6117216117216,,0,-1,1768945196.5447388
1768945196552.5513,1510.6227106227104,,0,-1,1768945196.5525513
1768945196560.3638,1497.4358974358972,,0,-1,1768945196.5603638
1768945196568.1765,1491.5750915750914,,0,-1,1768945196.5681765
1768945196575.9888,1491.5750915750914,,0,-1,1768945196.5759888
1768945196583.8013,1491.5750915750914,,0,-1,1768945196.5838013
1768945196591.6138,1493.7728937728937,,0,-1,1768945196.5916138
1768945196599.4265,1496.7032967032967,,0,-1,1768945196.5994265
1768945196607.2388,1496.7032967032967,,0,-1,1768945196.6072388
1768945196615.0513,1495.970695970696,,0,-1,1768945196.6150513
1768945196622.8638,1495.2380952380952,,0,-1,1768945196.6228638
1768945196630.6765,1495.2380952380952,,0,-1,1768945196.6306765
1768945196638.4888,1495.2380952380952,,0,-1,1768945196.6384888
1768945196646.3013,1494.5054945054944,,0,-1,1768945196.6463013
1768945196654.1138,1496.7032967032967,,0,-1,1768945196.6541138
1768945196661.9265,1495.970695970696,,0,-1,1768945196.6619265
1768945196669.7388,1495.970695970696,,0,-1,1768945196.6697388
1768945196677.5513,1495.970695970696,,0,-1,1768945196.6775513
1768945196685.3638,1495.2380952380952,,0,-1,1768945196.6853638
1768945196693.1765,1495.970695970696,,0,-1,1768945196.6931765
1768945196700.9888,1495.2380952380952,,0,-1,1768945196.7009888
1768945196708.8013,1493.040293040293,,0,-1,1768945196.7088013
1768945196716.6138,1494.5054945054944,,0,-1,1768945196.7166138
1768945196724.4265,1492.3076923076922,,0,-1,1768945196.7244265
1768945196732.2388,1487.9120879120878,,0,-1,1768945196.7322388
1768945196740.0513,1479.8534798534797,,0,-1,1768945196.7400513
1768945196747.8638,1466.6666666666663,,0,-1,1768945196.7478638
1768945196755.6765,1453.479853479853,,0,-1,1768945196.7556765
1768945196763.4888,1442.4908424908424,,0,-1,1768945196.7634888
1768945196771.3013,1434.4322344322345,,0,-1,1768945196.7713013
1768945196779.1138,1430.03663003663,,0,-1,1768945196.7791138
1768945196786.9265,1430.03663003663,,0,-1,1768945196.7869265
1768945196794.7388,1429.3040293040292,,0,-1,1768945196.7947388
1768945196802.5513,1432.2344322344322,,0,-1,1768945196.8025513
1768945196810.3638,1435.8974358974358,,0,-1,1768945196.8103638
1768945196818.1765,1439.5604395604394,,0,-1,1768945196.8181765
1768945196825.9888,1441.7582417582416,,0,-1,1768945196.8259888
1768945196833.8013,1441.7582417582416,,0,-1,1768945196.8338013
1768945196841.6138,1441.0256410256409,,0,-1,1768945196.8416138
1768945196849.4265,1444.688644688645,,0,-1,1768945196.8494265
1768945196857.2388,1447.6190476190477,,0,-1,1768945196.8572388
1768945196865.0513,1450.5494505494505,,0,-1,1768945196.8650513
1768945196872.8638,1457.142857142857,,0,-1,1768945196.8728638
1768945196880.6765,1465.9340659340658,,0,-1,1768945196.8806765
1768945196888.4888,1471.7948717948716,,0,-1,1768945196.8884888
1768945196896.3013,1477.6556776556777,,0,-1,1768945196.8963013
1768945196904.1138,1481.3186813186812,,0,-1,1768945196.9041138
1768945196911.9265,1480.5860805860805,,0,-1,1768945196.9119265
1768945196919.7388,1480.5860805860805,,0,-1,1768945196.9197388
1768945196927.5513,1482.7838827838827,,0,-1,1768945196.9275513
1768945196935.3638,1485.7142857142856,,0,-1,1768945196.9353638
1768945196943.1765,1488.6446886446886,,0,-1,1768945196.9431765
1768945196950.9888,1487.9120879120878,,0,-1,1768945196.9509888
1768945196958.8013,1484.2490842490845,,0,-1,1768945196.9588013
1768945196966.6138,1480.5860805860805,,0,-1,1768945196.9666138
1768945196974.4265,1473.992673992674,,0,-1,1768945196.9744265
1768945196982.2388,1467.3992673992673,,0,-1,1768945196.9822388
1768945196990.0513,1460.805860805861,,0,-1,1768945196.9900513
1768945196997.8638,1449.8168498168498,,0,-1,1768945196.9978638
1768945197005.6765,1441.0256410256409,,0,-1,1768945197.0056765
1768945197013.4888,1427.8388278388277,,0,-1,1768945197.0134888
1768945197021.3013,1418.3150183150185,,0,-1,1768945197.0213013
1768945197029.1138,1405.8608058608058,,0,-1,1768945197.0291138
1768945197036.9265,1397.069597069597,,0,-1,1768945197.0369265
1768945197044.7388,1385.3479853479853,,0,-1,1768945197.0447388
1768945197052.5513,1375.091575091575,,0,-1,1768945197.0525513
1768945197060.3638,1373.6263736263736,,0,-1,1768945197.0603638
1768945197068.1765,1380.952380952381,,0,-1,1768945197.0681765
1768945197075.9888,1394.139194139194,,0,-1,1768945197.0759888
1768945197083.8013,1408.7912087912086,,0,-1,1768945197.0838013
1768945197091.6138,1424.175824175824,,0,-1,1768945197.0916138
1768945197099.4265,1440.29304029304,,0,-1,1768945197.0994265
1768945197107.2388,1452.7472527472526,,0,-1,1768945197.1072388
1768945197115.0513,1461.5384615384614,,0,-1,1768945197.1150513
1768945197122.8638,1465.9340659340658,,0,-1,1768945197.1228638
1768945197130.6765,1466.6666666666663,,0,-1,1768945197.1306765
1768945197138.4888,1465.9340659340658,,0,-1,1768945197.1384888
1768945197146.3013,1464.4688644688645,,0,-1,1768945197.1463013
1768945197154.1138,1462.2710622710622,,0,-1,1768945197.1541138
1768945197161.9265,1459.3406593406592,,0,-1,1768945197.1619265
1768945197169.7388,1457.142857142857,,0,-1,1768945197.1697388
1768945197177.5513,1452.7472527472526,,0,-1,1768945197.1775513
1768945197185.3638,1446.8864468864467,,0,-1,1768945197.1853638
1768945197193.1765,1439.5604395604394,,0,-1,1768945197.1931765
1768945197200.9888,1434.4322344322345,,0,-1,1768945197.2009888
1768945197208.8013,1434.4322344322345,,0,-1,1768945197.2088013
1768945197216.6138,1438.095238095238,,0,-1,1768945197.2166138
1768945197224.4265,1445.4212454212454,,0,-1,1768945197.2244265
1768945197232.2388,1454.9450549450548,,0,-1,1768945197.2322388
1768945197240.0513,1470.3296703296703,,0,-1,1768945197.2400513
1768945197247.8638,1484.2490842490845,,0,-1,1768945197.2478638
1768945197255.6765,1501.098901098901,,0,-1,1768945197.2556765
1768945197263.4888,1516.4835164835165,,0,-1,1768945197.2634888
1768945197271.3013,1525.2747252747251,,0,-1,1768945197.2713013
1768945197279.1138,1532.6007326007325,,0,-1,1768945197.2791138
1768945197286.9265,1541.3919413919414,,0,-1,1768945197.2869265
1768945197294.7388,1550.9157509157508,,0,-1,1768945197.2947388
1768945197302.5513,1556.043956043956,,0,-1,1768945197.3025513
1768945197310.3638,1558.241758241758,,0,-1,1768945197.3103638
1768945197318.1765,1557.5091575091574,,0,-1,1768945197.3181765
1768945197325.9888,1553.8461538461538,,0,-1,1768945197.3259888
1768945197333.8013,1549.4505494505493,,0,-1,1768945197.3338013
1768945197341.6138,1543.5897435897434,,0,-1,1768945197.3416138
1768945197349.4265,1538.4615384615383,,0,-1,1768945197.3494265
1768945197357.2388,1533.3333333333333,,0,-1,1768945197.3572388
1768945197365.0513,1526.739926739927,,0,-1,1768945197.3650513
1768945197372.8638,1519.4139194139193,,0,-1,1768945197.3728638
1768945197380.6765,1508.4249084249084,,0,-1,1768945197.3806765
1768945197388.4888,1494.5054945054944,,0,-1,1768945197.3884888
1768945197396.3013,1482.7838827838827,,0,-1,1768945197.3963013
1768945197404.1138,1471.062271062271,,0,-1,1768945197.4041138
1768945197411.9265,1464.4688644688645,,0,-1,1768945197.4119265
1768945197419.7388,1456.4102564102564,,0,-1,1768945197.4197388
1768945197427.5513,1448.3516483516482,,0,-1,1768945197.4275513
1768945197435.3638,1440.29304029304,,0,-1,1768945197.4353638
1768945197443.1765,1434.4322344322345,,0,-1,1768945197.4431765
1768945197450.9888,1427.106227106227,,0,-1,1768945197.4509888
1768945197458.8013,1425.6410256410256,,0,-1,1768945197.4588013
1768945197466.6138,1433.6996336996335,,0,-1,1768945197.4666138
1768945197474.4265,1443.956043956044,,0,-1,1768945197.4744265
1768945197482.2388,1457.875457875458,,0,-1,1768945197.4822388
1768945197490.0513,1471.062271062271,,0,-1,1768945197.4900513
1768945197497.8638,1484.2490842490845,,0,-1,1768945197.4978638
1768945197505.6765,1493.7728937728937,,0,-1,1768945197.5056765
1768945197513.4888,1504.7619047619046,,0,-1,1768945197.5134888
1768945197521.3013,1515.7509157509155,,0,-1,1768945197.5213013
1768945197529.1138,1525.2747252747251,,0,-1,1768945197.5291138
1768945197536.9265,1533.3333333333333,,0,-1,1768945197.5369265
1768945197544.7388,1536.263736263736,,0,-1,1768945197.5447388
1768945197552.5513,1540.6593406593406,,0,-1,1768945197.5525513
1768945197560.3638,1541.3919413919414,,0,-1,1768945197.5603638
1768945197568.1765,1538.4615384615383,,0,-1,1768945197.5681765
1768945197575.9888,1535.5311355311355,,0,-1,1768945197.5759888
1768945197583.8013,1526.739926739927,,0,-1,1768945197.5838013
1768945197591.6138,1518.6813186813183,,0,-1,1768945197.5916138
1768945197599.4265,1511.3553113553112,,0,-1,1768945197.5994265
1768945197607.2388,1505.4945054945051,,0,-1,1768945197.6072388
1768945197615.0513,1505.4945054945051,,0,-1,1768945197.6150513
1768945197622.8638,1510.6227106227104,,0,-1,1768945197.6228638
1768945197630.6765,1520.8791208791208,,0,-1,1768945197.6306765
1768945197638.4888,1537.7289377289376,,0,-1,1768945197.6384888
1768945197646.3013,1556.043956043956,,0,-1,1768945197.6463013
1768945197654.1138,1574.3589743589744,,0,-1,1768945197.6541138
1768945197661.9265,1595.6043956043954,,0,-1,1768945197.6619265
1768945197669.7388,1616.117216117216,,0,-1,1768945197.6697388
1768945197677.5513,1633.6996336996335,,0,-1,1768945197.6775513
1768945197685.3638,1654.212454212454,,0,-1,1768945197.6853638
1768945197693.1765,1674.7252747252746,,0,-1,1768945197.6931765
1768945197700.9888,1684.9816849816848,,0,-1,1768945197.7009888
1768945197708.8013,1690.10989010989,,0,-1,1768945197.7088013
1768945197716.6138,1687.179487179487,,0,-1,1768945197.7166138
1768945197724.4265,1673.992673992674,,0,-1,1768945197.7244265
1768945197732.2388,1657.142857142857,,0,-1,1768945197.7322388
1768945197740.0513,1635.164835164835,,0,-1,1768945197.7400513
1768945197747.8638,1608.7912087912086,,0,-1,1768945197.7478638
1768945197755.6765,1583.8827838827838,,0,-1,1768945197.7556765
1768945197763.4888,1565.5677655677655,,0,-1,1768945197.7634888
1768945197771.3013,1553.8461538461538,,0,-1,1768945197.7713013
1768945197779.1138,1546.5201465201465,,0,-1,1768945197.7791138
1768945197786.9265,1545.054945054945,,0,-1,1768945197.7869265
1768945197794.7388,1551.6483516483515,,0,-1,1768945197.7947388
1768945197802.5513,1551.6483516483515,,0,-1,1768945197.8025513
1768945197810.3638,1553.113553113553,,0,-1,1768945197.8103638
1768945197818.1765,1553.113553113553,,0,-1,1768945197.8181765
1768945197825.9888,1545.054945054945,,0,-1,1768945197.8259888
1768945197833.8013,1531.8681318681315,,0,-1,1768945197.8338013
1768945197841.6138,1512.087912087912,,0,-1,1768945197.8416138
1768945197849.4265,1491.5750915750914,,0,-1,1768945197.8494265
1768945197857.2388,1460.07326007326,,0,-1,1768945197.8572388
1768945197865.0513,1425.6410256410256,,0,-1,1768945197.8650513
1768945197872.8638,1391.941391941392,,0,-1,1768945197.8728638
1768945197880.6765,1361.904761904762,,0,-1,1768945197.8806765
1768945197888.4888,1341.3919413919414,,0,-1,1768945197.8884888
1768945197896.3013,1328.2051282051282,,0,-1,1768945197.8963013
1768945197904.1138,1323.076923076923,,0,-1,1768945197.9041138
1768945197911.9265,1326.007326007326,,0,-1,1768945197.9119265
1768945197919.7388,1336.9963369963368,,0,-1,1768945197.9197388
1768945197927.5513,1343.5897435897434,,0,-1,1768945197.9275513
1768945197935.3638,1353.8461538461538,,0,-1,1768945197.9353638
1768945197943.1765,1365.5677655677655,,0,-1,1768945197.9431765
1768945197950.9888,1375.8241758241757,,0,-1,1768945197.9509888
1768945197958.8013,1389.0109890109889,,0,-1,1768945197.9588013
1768945197966.6138,1401.4652014652013,,0,-1,1768945197.9666138
1768945197974.4265,1414.6520146520145,,0,-1,1768945197.9744265
1768945197982.2388,1430.03663003663,,0,-1,1768945197.9822388
1768945197990.0513,1443.2234432234432,,0,-1,1768945197.9900513
1768945197997.8638,1452.014652014652,,0,-1,1768945197.9978638
1768945198005.6765,1457.875457875458,,0,-1,1768945198.0056765
1768945198013.4888,1465.201465201465,,0,-1,1768945198.0134888
1768945198021.3013,1467.3992673992673,,0,-1,1768945198.0213013
1768945198029.1138,1469.5970695970695,,0,-1,1768945198.0291138
1768945198036.9265,1476.923076923077,,0,-1,1768945198.0369265
1768945198044.7388,1480.5860805860805,,0,-1,1768945198.0447388
1768945198052.5513,1483.5164835164835,,0,-1,1768945198.0525513
1768945198060.3638,1487.179487179487,,0,-1,1768945198.0603638
1768945198068.1765,1488.6446886446886,,0,-1,1768945198.0681765
1768945198075.9888,1486.4468864468863,,0,-1,1768945198.0759888
1768945198083.8013,1480.5860805860805,,0,-1,1768945198.0838013
1768945198091.6138,1477.6556776556777,,0,-1,1768945198.0916138
1768945198099.4265,1471.062271062271,,0,-1,1768945198.0994265
1768945198107.2388,1466.6666666666663,,0,-1,1768945198.1072388
1768945198115.0513,1467.3992673992673,,0,-1,1768945198.1150513
1768945198122.8638,1467.3992673992673,,0,-1,1768945198.1228638
1768945198130.6765,1466.6666666666663,,0,-1,1768945198.1306765
1768945198138.4888,1463.7362637362637,,0,-1,1768945198.1384888
1768945198146.3013,1471.062271062271,,0,-1,1768945198.1463013
1768945198154.1138,1473.992673992674,,0,-1,1768945198.1541138
1768945198161.9265,1479.8534798534797,,0,-1,1768945198.1619265
1768945198169.7388,1484.2490842490845,,0,-1,1768945198.1697388
1768945198177.5513,1486.4468864468863,,0,-1,1768945198.1775513
1768945198185.3638,1486.4468864468863,,0,-1,1768945198.1853638
1768945198193.1765,1480.5860805860805,,0,-1,1768945198.1931765
1768945198200.9888,1476.190476190476,,0,-1,1768945198.2009888
1768945198208.8013,1474.7252747252746,,0,-1,1768945198.2088013
1768945198216.6138,1468.131868131868,,0,-1,1768945198.2166138
1768945198224.4265,1460.805860805861,,0,-1,1768945198.2244265
1768945198232.2388,1454.212454212454,,0,-1,1768945198.2322388
1768945198240.0513,1441.0256410256409,,0,-1,1768945198.2400513
1768945198247.8638,1432.2344322344322,,0,-1,1768945198.2478638
1768945198255.6765,1419.7802197802198,,0,-1,1768945198.2556765
1768945198263.4888,1412.4542124542124,,0,-1,1768945198.2634888
1768945198271.3013,1408.7912087912086,,0,-1,1768945198.2713013
1768945198279.1138,1406.5934065934066,,0,-1,1768945198.2791138
1768945198286.9265,1403.6630036630036,,0,-1,1768945198.2869265
1768945198294.7388,1397.069597069597,,0,-1,1768945198.2947388
1768945198302.5513,1396.3369963369962,,0,-1,1768945198.3025513
1768945198310.3638,1394.139194139194,,0,-1,1768945198.3103638
1768945198318.1765,1397.069597069597,,0,-1,1768945198.3181765
1768945198325.9888,1400.7326007326003,,0,-1,1768945198.3259888
1768945198333.8013,1409.5238095238094,,0,-1,1768945198.3338013
1768945198341.6138,1413.9194139194135,,0,-1,1768945198.3416138
1768945198349.4265,1419.7802197802198,,0,-1,1768945198.3494265
1768945198357.2388,1416.8498168498168,,0,-1,1768945198.3572388
1768945198365.0513,1417.5824175824175,,0,-1,1768945198.3650513
1768945198372.8638,1416.117216117216,,0,-1,1768945198.3728638
1768945198380.6765,1421.9780219780218,,0,-1,1768945198.3806765
1768945198388.4888,1427.8388278388277,,0,-1,1768945198.3884888
1768945198396.3013,1434.4322344322345,,0,-1,1768945198.3963013
1768945198404.1138,1441.7582417582416,,0,-1,1768945198.4041138
1768945198411.9265,1444.688644688645,,0,-1,1768945198.4119265
1768945198419.7388,1449.8168498168498,,0,-1,1768945198.4197388
1768945198427.5513,1449.084249084249,,0,-1,1768945198.4275513
1768945198435.3638,1448.3516483516482,,0,-1,1768945198.4353638
1768945198443.1765,1444.688644688645,,0,-1,1768945198.4431765
1768945198450.9888,1435.164835164835,,0,-1,1768945198.4509888
1768945198458.8013,1421.245421245421,,0,-1,1768945198.4588013
1768945198466.6138,1413.1868131868132,,0,-1,1768945198.4666138
1768945198474.4265,1402.197802197802,,0,-1,1768945198.4744265
1768945198482.2388,1397.069597069597,,0,-1,1768945198.4822388
1768945198490.0513,1391.2087912087911,,0,-1,1768945198.4900513
1768945198497.8638,1386.8131868131868,,0,-1,1768945198.4978638
1768945198505.6765,1383.8827838827838,,0,-1,1768945198.5056765
1768945198513.4888,1375.8241758241757,,0,-1,1768945198.5134888
1768945198521.3013,1374.3589743589744,,0,-1,1768945198.5213013
1768945198529.1138,1365.5677655677655,,0,-1,1768945198.5291138
1768945198536.9265,1361.904761904762,,0,-1,1768945198.5369265
1768945198544.7388,1355.311355311355,,0,-1,1768945198.5447388
1768945198552.5513,1349.4505494505493,,0,-1,1768945198.5525513
1768945198560.3638,1342.124542124542,,0,-1,1768945198.5603638
1768945198568.1765,1339.194139194139,,0,-1,1768945198.5681765
1768945198575.9888,1342.124542124542,,0,-1,1768945198.5759888
1768945198583.8013,1347.985347985348,,0,-1,1768945198.5838013
1768945198591.6138,1361.1721611721612,,0,-1,1768945198.5916138
1768945198599.4265,1369.9633699633698,,0,-1,1768945198.5994265
1768945198607.2388,1379.4871794871794,,0,-1,1768945198.6072388
1768945198615.0513,1386.8131868131868,,0,-1,1768945198.6150513
1768945198622.8638,1395.6043956043954,,0,-1,1768945198.6228638
1768945198630.6765,1397.8021978021975,,0,-1,1768945198.6306765
1768945198638.4888,1405.128205128205,,0,-1,1768945198.6384888
1768945198646.3013,1407.3260073260071,,0,-1,1768945198.6463013
1768945198654.1138,1413.1868131868132,,0,-1,1768945198.6541138
1768945198661.9265,1416.8498168498168,,0,-1,1768945198.6619265
1768945198669.7388,1416.8498168498168,,0,-1,1768945198.6697388
1768945198677.5513,1415.3846153846152,,0,-1,1768945198.6775513
1768945198685.3638,1414.6520146520145,,0,-1,1768945198.6853638
1768945198693.1765,1418.3150183150185,,0,-1,1768945198.6931765
1768945198700.9888,1421.245421245421,,0,-1,1768945198.7009888
1768945198708.8013,1425.6410256410256,,0,-1,1768945198.7088013
1768945198716.6138,1433.6996336996335,,0,-1,1768945198.7166138
1768945198724.4265,1440.29304029304,,0,-1,1768945198.7244265
1768945198732.2388,1451.2820512820513,,0,-1,1768945198.7322388
1768945198740.0513,1457.142857142857,,0,-1,1768945198.7400513
1768945198747.8638,1459.3406593406592,,0,-1,1768945198.7478638
1768945198755.6765,1461.5384615384614,,0,-1,1768945198.7556765
1768945198763.4888,1458.6080586080584,,0,-1,1768945198.7634888
1768945198771.3013,1461.5384615384614,,0,-1,1768945198.7713013
1768945198779.1138,1465.9340659340658,,0,-1,1768945198.7791138
1768945198786.9265,1480.5860805860805,,0,-1,1768945198.7869265
1768945198794.7388,1490.10989010989,,0,-1,1768945198.7947388
1768945198802.5513,1504.7619047619046,,0,-1,1768945198.8025513
1768945198810.3638,1513.5531135531137,,0,-1,1768945198.8103638
1768945198818.1765,1521.6117216117216,,0,-1,1768945198.8181765
1768945198825.9888,1526.739926739927,,0,-1,1768945198.8259888
1768945198833.8013,1533.3333333333333,,0,-1,1768945198.8338013
1768945198841.6138,1538.4615384615383,,0,-1,1768945198.8416138
1768945198849.4265,1542.124542124542,,0,-1,1768945198.8494265
1768945198857.2388,1546.5201465201465,,0,-1,1768945198.8572388
1768945198865.0513,1549.4505494505493,,0,-1,1768945198.8650513
1768945198872.8638,1553.113553113553,,0,-1,1768945198.8728638
1768945198880.6765,1556.043956043956,,0,-1,1768945198.8806765
1768945198888.4888,1554.5787545787546,,0,-1,1768945198.8884888
1768945198896.3013,1550.9157509157508,,0,-1,1768945198.8963013
1768945198904.1138,1539.92673992674,,0,-1,1768945198.9041138
1768945198911.9265,1531.8681318681315,,0,-1,1768945198.9119265
1768945198919.7388,1520.8791208791208,,0,-1,1768945198.9197388
1768945198927.5513,1511.3553113553112,,0,-1,1768945198.9275513
1768945198935.3638,1507.6923076923076,,0,-1,1768945198.9353638
1768945198943.1765,1501.098901098901,,0,-1,1768945198.9431765
1768945198950.9888,1495.2380952380952,,0,-1,1768945198.9509888
1768945198958.8013,1493.7728937728937,,0,-1,1768945198.9588013
1768945198966.6138,1488.6446886446886,,0,-1,1768945198.9666138
1768945198974.4265,1490.10989010989,,0,-1,1768945198.9744265
1768945198982.2388,1490.10989010989,,0,-1,1768945198.9822388
1768945198990.0513,1491.5750915750914,,0,-1,1768945198.9900513
1768945198997.8638,1495.970695970696,,0,-1,1768945198.9978638
1768945199005.6765,1498.9010989010987,,0,-1,1768945199.0056765
1768945199013.4888,1498.9010989010987,,0,-1,1768945199.0134888
1768945199021.3013,1500.3663003663005,,0,-1,1768945199.0213013
1768945199029.1138,1499.6336996336995,,0,-1,1768945199.0291138
1768945199036.9265,1494.5054945054944,,0,-1,1768945199.0369265
1768945199044.7388,1491.5750915750914,,0,-1,1768945199.0447388
1768945199052.5513,1489.3772893772891,,0,-1,1768945199.0525513
1768945199060.3638,1487.9120879120878,,0,-1,1768945199.0603638
1768945199068.1765,1490.8424908424906,,0,-1,1768945199.0681765
1768945199075.9888,1485.7142857142856,,0,-1,1768945199.0759888
1768945199083.8013,1482.051282051282,,0,-1,1768945199.0838013
1768945199091.6138,1471.7948717948716,,0,-1,1768945199.0916138
1768945199099.4265,1460.805860805861,,0,-1,1768945199.0994265
1768945199107.2388,1449.084249084249,,0,-1,1768945199.1072388
1768945199115.0513,1429.3040293040292,,0,-1,1768945199.1150513
1768945199122.8638,1410.2564102564102,,0,-1,1768945199.1228638
1768945199130.6765,1391.2087912087911,,0,-1,1768945199.1306765
1768945199138.4888,1375.8241758241757,,0,-1,1768945199.1384888
1768945199146.3013,1367.032967032967,,0,-1,1768945199.1463013
1768945199154.1138,1360.4395604395604,,0,-1,1768945199.1541138
1768945199161.9265,1351.6483516483515,,0,-1,1768945199.1619265
1768945199169.7388,1343.5897435897434,,0,-1,1768945199.1697388
1768945199177.5513,1340.6593406593406,,0,-1,1768945199.1775513
1768945199185.3638,1338.4615384615383,,0,-1,1768945199.1853638
1768945199193.1765,1336.9963369963368,,0,-1,1768945199.1931765
1768945199200.9888,1336.9963369963368,,0,-1,1768945199.2009888
1768945199208.8013,1339.92673992674,,0,-1,1768945199.2088013
1768945199216.6138,1345.7875457875457,,0,-1,1768945199.2166138
1768945199224.4265,1351.6483516483515,,0,-1,1768945199.2244265
1768945199232.2388,1357.5091575091574,,0,-1,1768945199.2322388
1768945199240.0513,1356.7765567765566,,0,-1,1768945199.2400513
1768945199247.8638,1353.8461538461538,,0,-1,1768945199.2478638
1768945199255.6765,1347.985347985348,,0,-1,1768945199.2556765
1768945199263.4888,1339.194139194139,,0,-1,1768945199.2634888
1768945199271.3013,1337.7289377289376,,0,-1,1768945199.2713013
1768945199279.1138,1339.194139194139,,0,-1,1768945199.2791138
1768945199286.9265,1341.3919413919414,,0,-1,1768945199.2869265
1768945199294.7388,1343.5897435897434,,0,-1,1768945199.2947388
1768945199302.5513,1350.9157509157508,,0,-1,1768945199.3025513
1768945199310.3638,1361.904761904762,,0,-1,1768945199.3103638
1768945199318.1765,1368.4981684981683,,0,-1,1768945199.3181765
1768945199325.9888,1373.6263736263736,,0,-1,1768945199.3259888
1768945199333.8013,1378.7545787545787,,0,-1,1768945199.3338013
1768945199341.6138,1375.8241758241757,,0,-1,1768945199.3416138
1768945199349.4265,1370.6959706959706,,0,-1,1768945199.3494265
1768945199357.2388,1367.032967032967,,0,-1,1768945199.3572388
1768945199365.0513,1365.5677655677655,,0,-1,1768945199.3650513
1768945199372.8638,1362.6373626373625,,0,-1,1768945199.3728638
1768945199380.6765,1357.5091575091574,,0,-1,1768945199.3806765
1768945199388.4888,1358.241758241758,,0,-1,1768945199.3884888
1768945199396.3013,1360.4395604395604,,0,-1,1768945199.3963013
1768945199404.1138,1369.9633699633698,,0,-1,1768945199.4041138
1768945199411.9265,1379.4871794871794,,0,-1,1768945199.4119265
1768945199419.7388,1392.6739926739926,,0,-1,1768945199.4197388
1768945199427.5513,1402.197802197802,,0,-1,1768945199.4275513
1768945199435.3638,1413.1868131868132,,0,-1,1768945199.4353638
1768945199443.1765,1426.3736263736262,,0,-1,1768945199.4431765
1768945199450.9888,1432.2344322344322,,0,-1,1768945199.4509888
1768945199458.8013,1441.0256410256409,,0,-1,1768945199.4588013
1768945199466.6138,1443.956043956044,,0,-1,1768945199.4666138
1768945199474.4265,1445.4212454212454,,0,-1,1768945199.4744265
1768945199482.2388,1446.8864468864467,,0,-1,1768945199.4822388
1768945199490.0513,1448.3516483516482,,0,-1,1768945199.4900513
1768945199497.8638,1453.479853479853,,0,-1,1768945199.4978638
1768945199505.6765,1463.003663003663,,0,-1,1768945199.5056765
1768945199513.4888,1476.923076923077,,0,-1,1768945199.5134888
1768945199521.3013,1490.10989010989,,0,-1,1768945199.5213013
1768945199529.1138,1501.098901098901,,0,-1,1768945199.5291138
1768945199536.9265,1506.9597069597069,,0,-1,1768945199.5369265
1768945199544.7388,1508.4249084249084,,0,-1,1768945199.5447388
1768945199552.5513,1511.3553113553112,,0,-1,1768945199.5525513
1768945199560.3638,1514.2857142857142,,0,-1,1768945199.5603638
1768945199568.1765,1518.6813186813183,,0,-1,1768945199.5681765
1768945199575.9888,1528.937728937729,,0,-1,1768945199.5759888
1768945199583.8013,1538.4615384615383,,0,-1,1768945199.5838013
1768945199591.6138,1548.7179487179485,,0,-1,1768945199.5916138
1768945199599.4265,1564.8351648351647,,0,-1,1768945199.5994265
1768945199607.2388,1580.2197802197802,,0,-1,1768945199.6072388
1768945199615.0513,1594.8717948717947,,0,-1,1768945199.6150513
1768945199622.8638,1609.5238095238094,,0,-1,1768945199.6228638
1768945199630.6765,1621.245421245421,,0,-1,1768945199.6306765
1768945199638.4888,1634.4322344322345,,0,-1,1768945199.6384888
1768945199646.3013,1648.3516483516482,,0,-1,1768945199.6463013
1768945199654.1138,1665.9340659340658,,0,-1,1768945199.6541138
1768945199661.9265,1681.3186813186812,,0,-1,1768945199.6619265
1768945199669.7388,1696.7032967032967,,0,-1,1768945199.6697388
1768945199677.5513,1710.6227106227104,,0,-1,1768945199.6775513
1768945199685.3638,1723.8095238095236,,0,-1,1768945199.6853638
1768945199693.1765,1736.9963369963368,,0,-1,1768945199.6931765
1768945199700.9888,1745.7875457875457,,0,-1,1768945199.7009888
1768945199708.8013,1750.18315018315,,0,-1,1768945199.7088013
1768945199716.6138,1751.6483516483515,,0,-1,1768945199.7166138
1768945199724.4265,1749.4505494505493,,0,-1,1768945199.7244265
1768945199732.2388,1748.7179487179485,,0,-1,1768945199.7322388
1768945199740.0513,1747.2527472527472,,0,-1,1768945199.7400513
1768945199747.8638,1739.92673992674,,0,-1,1768945199.7478638
1768945199755.6765,1723.0769230769229,,0,-1,1768945199.7556765
1768945199763.4888,1700.3663003663005,,0,-1,1768945199.7634888
1768945199771.3013,1677.6556776556774,,0,-1,1768945199.7713013
1768945199779.1138,1649.084249084249,,0,-1,1768945199.7791138
1768945199786.9265,1615.3846153846152,,0,-1,1768945199.7869265
1768945199794.7388,1584.6153846153843,,0,-1,1768945199.7947388
1768945199802.5513,1562.6373626373625,,0,-1,1768945199.8025513
1768945199810.3638,1544.3223443223442,,0,-1,1768945199.8103638
1768945199818.1765,1530.4029304029302,,0,-1,1768945199.8181765
1768945199825.9888,1517.9487179487178,,0,-1,1768945199.8259888
1768945199833.8013,1506.9597069597069,,0,-1,1768945199.8338013
1768945199841.6138,1493.040293040293,,0,-1,1768945199.8416138
1768945199849.4265,1479.120879120879,,0,-1,1768945199.8494265
1768945199857.2388,1463.7362637362637,,0,-1,1768945199.8572388
1768945199865.0513,1447.6190476190477,,0,-1,1768945199.8650513
1768945199872.8638,1435.8974358974358,,0,-1,1768945199.8728638
1768945199880.6765,1421.9780219780218,,0,-1,1768945199.8806765
1768945199888.4888,1407.3260073260071,,0,-1,1768945199.8884888
1768945199896.3013,1397.069597069597,,0,-1,1768945199.8963013
1768945199904.1138,1395.6043956043954,,0,-1,1768945199.9041138
1768945199911.9265,1399.2673992673992,,0,-1,1768945199.9119265
1768945199919.7388,1410.989010989011,,0,-1,1768945199.9197388
1768945199927.5513,1421.245421245421,,0,-1,1768945199.9275513
1768945199935.3638,1432.2344322344322,,0,-1,1768945199.9353638
1768945199943.1765,1443.2234432234432,,0,-1,1768945199.9431765
1768945199950.9888,1445.4212454212454,,0,-1,1768945199.9509888
1768945199958.8013,1443.956043956044,,0,-1,1768945199.9588013
1768945199966.6138,1439.5604395604394,,0,-1,1768945199.9666138
1768945199974.4265,1435.8974358974358,,0,-1,1768945199.9744265
1768945199982.2388,1428.5714285714284,,0,-1,1768945199.9822388
1768945199990.0513,1420.5128205128203,,0,-1,1768945199.9900513
1768945199997.8638,1413.1868131868132,,0,-1,1768945199.9978638
1768945200005.6765,1406.5934065934066,,0,-1,1768945200.0056765
1768945200013.4888,1402.197802197802,,0,-1,1768945200.0134888
1768945200021.3013,1400.7326007326003,,0,-1,1768945200.0213013
1768945200029.1138,1399.2673992673992,,0,-1,1768945200.0291138
1768945200036.9265,1400.7326007326003,,0,-1,1768945200.0369265
1768945200044.7388,1402.9304029304028,,0,-1,1768945200.0447388
1768945200052.5513,1406.5934065934066,,0,-1,1768945200.0525513
1768945200060.3638,1407.3260073260071,,0,-1,1768945200.0603638
1768945200068.1765,1407.3260073260071,,0,-1,1768945200.0681765
1768945200075.9888,1405.128205128205,,0,-1,1768945200.0759888
1768945200083.8013,1397.069597069597,,0,-1,1768945200.0838013
1768945200091.6138,1383.150183150183,,0,-1,1768945200.0916138
1768945200099.4265,1369.230769230769,,0,-1,1768945200.0994265
1768945200107.2388,1354.5787545787546,,0,-1,1768945200.1072388
1768945200115.0513,1342.124542124542,,0,-1,1768945200.1150513
1768945200122.8638,1332.6007326007325,,0,-1,1768945200.1228638
1768945200130.6765,1327.4725274725274,,0,-1,1768945200.1306765
1768945200138.4888,1324.5421245421244,,0,-1,1768945200.1384888
1768945200146.3013,1321.6117216117216,,0,-1,1768945200.1463013
1768945200154.1138,1318.6813186813183,,0,-1,1768945200.1541138
1768945200161.9265,1316.4835164835165,,0,-1,1768945200.1619265
1768945200169.7388,1311.3553113553112,,0,-1,1768945200.1697388
1768945200177.5513,1307.6923076923076,,0,-1,1768945200.1775513
1768945200185.3638,1308.4249084249084,,0,-1,1768945200.1853638
1768945200193.1765,1309.1575091575091,,0,-1,1768945200.1931765
1768945200200.9888,1309.1575091575091,,0,-1,1768945200.2009888
1768945200208.8013,1306.9597069597069,,0,-1,1768945200.2088013
1768945200216.6138,1305.4945054945051,,0,-1,1768945200.2166138
1768945200224.4265,1305.4945054945051,,0,-1,1768945200.2244265
1768945200232.2388,1309.1575091575091,,0,-1,1768945200.2322388
1768945200240.0513,1317.216117216117,,0,-1,1768945200.2400513
1768945200247.8638,1332.6007326007325,,0,-1,1768945200.2478638
1768945200255.6765,1349.4505494505493,,0,-1,1768945200.2556765
1768945200263.4888,1367.032967032967,,0,-1,1768945200.2634888
1768945200271.3013,1389.0109890109889,,0,-1,1768945200.2713013
1768945200279.1138,1410.989010989011,,0,-1,1768945200.2791138
1768945200286.9265,1429.3040293040292,,0,-1,1768945200.2869265
1768945200294.7388,1446.153846153846,,0,-1,1768945200.2947388
1768945200302.5513,1460.07326007326,,0,-1,1768945200.3025513
1768945200310.3638,1473.992673992674,,0,-1,1768945200.3103638
1768945200318.1765,1484.2490842490845,,0,-1,1768945200.3181765
1768945200325.9888,1493.040293040293,,0,-1,1768945200.3259888
1768945200333.8013,1501.098901098901,,0,-1,1768945200.3338013
1768945200341.6138,1507.6923076923076,,0,-1,1768945200.3416138
1768945200349.4265,1512.8205128205127,,0,-1,1768945200.3494265
1768945200357.2388,1512.8205128205127,,0,-1,1768945200.3572388
1768945200365.0513,1514.2857142857142,,0,-1,1768945200.3650513
1768945200372.8638,1517.9487179487178,,0,-1,1768945200.3728638
1768945200380.6765,1522.3443223443223,,0,-1,1768945200.3806765
1768945200388.4888,1529.6703296703297,,0,-1,1768945200.3884888
1768945200396.3013,1536.263736263736,,0,-1,1768945200.3963013
1768945200404.1138,1541.3919413919414,,0,-1,1768945200.4041138
1768945200411.9265,1543.5897435897434,,0,-1,1768945200.4119265
1768945200419.7388,1544.3223443223442,,0,-1,1768945200.4197388
1768945200427.5513,1539.92673992674,,0,-1,1768945200.4275513
1768945200435.3638,1531.135531135531,,0,-1,1768945200.4353638
1768945200443.1765,1519.4139194139193,,0,-1,1768945200.4431765
1768945200450.9888,1505.4945054945051,,0,-1,1768945200.4509888
1768945200458.8013,1494.5054945054944,,0,-1,1768945200.4588013
1768945200466.6138,1484.9816849816848,,0,-1,1768945200.4666138
1768945200474.4265,1476.923076923077,,0,-1,1768945200.4744265
1768945200482.2388,1468.131868131868,,0,-1,1768945200.4822388
1768945200490.0513,1458.6080586080584,,0,-1,1768945200.4900513
1768945200497.8638,1453.479853479853,,0,-1,1768945200.4978638
1768945200505.6765,1447.6190476190477,,0,-1,1768945200.5056765
1768945200513.4888,1443.2234432234432,,0,-1,1768945200.5134888
1768945200521.3013,1439.5604395604394,,0,-1,1768945200.5213013
1768945200529.1138,1435.164835164835,,0,-1,1768945200.5291138
1768945200536.9265,1425.6410256410256,,0,-1,1768945200.5369265
1768945200544.7388,1413.9194139194135,,0,-1,1768945200.5447388
1768945200552.5513,1405.8608058608058,,0,-1,1768945200.5525513
1768945200560.3638,1400.0,,0,-1,1768945200.5603638
1768945200568.1765,1397.8021978021975,,0,-1,1768945200.5681765
1768945200575.9888,1398.5347985347985,,0,-1,1768945200.5759888
1768945200583.8013,1399.2673992673992,,0,-1,1768945200.5838013
1768945200591.6138,1397.8021978021975,,0,-1,1768945200.5916138
1768945200599.4265,1401.4652014652013,,0,-1,1768945200.5994265
1768945200607.2388,1402.9304029304028,,0,-1,1768945200.6072388
1768945200615.0513,1399.2673992673992,,0,-1,1768945200.6150513
1768945200622.8638,1395.6043956043954,,0,-1,1768945200.6228638
1768945200630.6765,1387.5457875457876,,0,-1,1768945200.6306765
1768945200638.4888,1382.4175824175825,,0,-1,1768945200.6384888
1768945200646.3013,1380.2197802197802,,0,-1,1768945200.6463013
1768945200654.1138,1381.6849816849815,,0,-1,1768945200.6541138
1768945200661.9265,1383.8827838827838,,0,-1,1768945200.6619265
1768945200669.7388,1386.080586080586,,0,-1,1768945200.6697388
1768945200677.5513,1387.5457875457876,,0,-1,1768945200.6775513
1768945200685.3638,1390.4761904761904,,0,-1,1768945200.6853638
1768945200693.1765,1390.4761904761904,,0,-1,1768945200.6931765
1768945200700.9888,1387.5457875457876,,0,-1,1768945200.7009888
1768945200708.8013,1382.4175824175825,,0,-1,1768945200.7088013
1768945200716.6138,1370.6959706959706,,0,-1,1768945200.7166138
1768945200724.4265,1361.1721611721612,,0,-1,1768945200.7244265
1768945200732.2388,1355.311355311355,,0,-1,1768945200.7322388
1768945200740.0513,1347.2527472527472,,0,-1,1768945200.7400513
1768945200747.8638,1336.263736263736,,0,-1,1768945200.7478638
1768945200755.6765,1326.739926739927,,0,-1,1768945200.7556765
1768945200763.4888,1320.14652014652,,0,-1,1768945200.7634888
1768945200771.3013,1314.2857142857142,,0,-1,1768945200.7713013
1768945200779.1138,1310.6227106227104,,0,-1,1768945200.7791138
1768945200786.9265,1312.087912087912,,0,-1,1768945200.7869265
1768945200794.7388,1316.4835164835165,,0,-1,1768945200.7947388
1768945200802.5513,1320.8791208791208,,0,-1,1768945200.8025513
1768945200810.3638,1329.6703296703297,,0,-1,1768945200.8103638
1768945200818.1765,1335.5311355311355,,0,-1,1768945200.8181765
1768945200825.9888,1339.92673992674,,0,-1,1768945200.8259888
1768945200833.8013,1342.124542124542,,0,-1,1768945200.8338013
1768945200841.6138,1342.124542124542,,0,-1,1768945200.8416138
1768945200849.4265,1337.7289377289376,,0,-1,1768945200.8494265
1768945200857.2388,1333.3333333333333,,0,-1,1768945200.8572388
1768945200865.0513,1328.2051282051282,,0,-1,1768945200.8650513
1768945200872.8638,1323.076923076923,,0,-1,1768945200.8728638
1768945200880.6765,1312.8205128205127,,0,-1,1768945200.8806765
1768945200888.4888,1297.4358974358977,,0,-1,1768945200.8884888
1768945200896.3013,1279.8534798534797,,0,-1,1768945200.8963013
1768945200904.1138,1261.5384615384614,,0,-1,1768945200.9041138
1768945200911.9265,1243.2234432234432,,0,-1,1768945200.9119265
1768945200919.7388,1218.3150183150185,,1,1,1768945200.9197388
1768945200927.5513,1194.1391941391942,,1,1,1768945200.9275513
1768945200935.3638,1164.8351648351647,,1,1,1768945200.9353638
1768945200943.1765,1126.007326007326,,1,1,1768945200.9431765
1768945200950.9888,1082.051282051282,,1,1,1768945200.9509888
1768945200958.8013,1038.8278388278388,,1,1,1768945200.9588013
1768945200966.6138,995.6043956043956,,1,1,1768945200.9666138
1768945200974.4265,961.172161172161,,1,1,1768945200.9744265
1768945200982.2388,939.1941391941392,,1,1,1768945200.9822388
1768945200990.0513,928.2051282051282,,1,1,1768945200.9900513
1768945200997.8638,926.7399267399268,,1,1,1768945200.9978638
1768945201005.6765,935.5311355311354,,1,1,1768945201.0056765
1768945201013.4888,945.7875457875456,,1,1,1768945201.0134888
1768945201021.3013,956.7765567765568,,1,1,1768945201.0213013
1768945201029.1138,972.161172161172,,1,1,1768945201.0291138
1768945201036.9265,990.4761904761904,,1,1,1768945201.0369265
1768945201044.7388,1013.1868131868132,,1,1,1768945201.0447388
1768945201052.5513,1036.6300366300366,,1,1,1768945201.0525513
1768945201060.3638,1062.2710622710622,,1,1,1768945201.0603638
1768945201068.1765,1088.6446886446886,,1,1,1768945201.0681765
1768945201075.9888,1117.2161172161173,,1,1,1768945201.0759888
1768945201083.8013,1149.4505494505493,,1,1,1768945201.0838013
1768945201091.6138,1184.6153846153843,,1,1,1768945201.0916138
1768945201099.4265,1216.117216117216,,1,1,1768945201.0994265
1768945201107.2388,1250.5494505494505,,1,1,1768945201.1072388
1768945201115.0513,1286.4468864468863,,1,1,1768945201.1150513
1768945201122.8638,1320.8791208791208,,1,1,1768945201.1228638
1768945201130.6765,1353.113553113553,,1,1,1768945201.1306765
1768945201138.4888,1380.2197802197802,,1,1,1768945201.1384888
1768945201146.3013,1404.3956043956043,,1,1,1768945201.1463013
1768945201154.1138,1421.9780219780218,,1,1,1768945201.1541138
1768945201161.9265,1435.164835164835,,1,1,1768945201.1619265
1768945201169.7388,1442.4908424908424,,1,1,1768945201.1697388
1768945201177.5513,1457.142857142857,,1,1,1768945201.1775513
1768945201185.3638,1469.5970695970695,,1,1,1768945201.1853638
1768945201193.1765,1479.8534798534797,,1,1,1768945201.1931765
1768945201200.9888,1490.8424908424906,,1,1,1768945201.2009888
1768945201208.8013,1503.2967032967033,,1,1,1768945201.2088013
1768945201216.6138,1512.8205128205127,,1,1,1768945201.2166138
1768945201224.4265,1529.6703296703297,,1,1,1768945201.2244265
1768945201232.2388,1548.7179487179485,,1,1,1768945201.2322388
1768945201240.0513,1559.7069597069597,,1,1,1768945201.2400513
1768945201247.8638,1567.7655677655678,,1,1,1768945201.2478638
1768945201255.6765,1566.3003663003662,,1,1,1768945201.2556765
1768945201263.4888,1563.3699633699632,,1,1,1768945201.2634888
1768945201271.3013,1559.7069597069597,,1,1,1768945201.2713013
1768945201279.1138,1556.043956043956,,1,1,1768945201.2791138
1768945201286.9265,1549.4505494505493,,1,1,1768945201.2869265
1768945201294.7388,1541.3919413919414,,1,1,1768945201.2947388
1768945201302.5513,1536.263736263736,,1,1,1768945201.3025513
1768945201310.3638,1534.7985347985348,,1,1,1768945201.3103638
1768945201318.1765,1531.8681318681315,,1,1,1768945201.3181765
1768945201325.9888,1526.007326007326,,1,1,1768945201.3259888
1768945201333.8013,1517.9487179487178,,1,1,1768945201.3338013
1768945201341.6138,1507.6923076923076,,1,1,1768945201.3416138
1768945201349.4265,1496.7032967032967,,1,1,1768945201.3494265
1768945201357.2388,1482.051282051282,,1,1,1768945201.3572388
1768945201365.0513,1465.201465201465,,1,1,1768945201.3650513
1768945201372.8638,1443.956043956044,,1,1,1768945201.3728638
1768945201380.6765,1417.5824175824175,,1,1,1768945201.3806765
1768945201388.4888,1397.069597069597,,1,1,1768945201.3884888
1768945201396.3013,1380.2197802197802,,1,1,1768945201.3963013
1768945201404.1138,1367.7655677655678,,1,1,1768945201.4041138
1768945201411.9265,1364.8351648351647,,1,1,1768945201.4119265
1768945201419.7388,1363.3699633699632,,1,1,1768945201.4197388
1768945201427.5513,1361.904761904762,,1,1,1768945201.4275513
1768945201435.3638,1362.6373626373625,,1,1,1768945201.4353638
1768945201443.1765,1360.4395604395604,,1,1,1768945201.4431765
1768945201450.9888,1356.7765567765566,,1,1,1768945201.4509888
1768945201458.8013,1349.4505494505493,,1,1,1768945201.4588013
1768945201466.6138,1339.92673992674,,1,1,1768945201.4666138
1768945201474.4265,1321.6117216117216,,1,1,1768945201.4744265
1768945201482.2388,1304.0293040293038,,1,1,1768945201.4822388
1768945201490.0513,1283.5164835164835,,1,1,1768945201.4900513
1768945201497.8638,1265.2014652014652,,1,1,1768945201.4978638
1768945201505.6765,1244.688644688645,,1,1,1768945201.5056765
1768945201513.4888,1227.106227106227,,1,1,1768945201.5134888
1768945201521.3013,1211.7216117216117,,1,1,1768945201.5213013
1768945201529.1138,1199.2673992673992,,1,1,1768945201.5291138
1768945201536.9265,1185.3479853479853,,1,1,1768945201.5369265
1768945201544.7388,1173.6263736263736,,1,1,1768945201.5447388
1768945201552.5513,1157.5091575091574,,1,1,1768945201.5525513
1768945201560.3638,1146.5201465201465,,1,1,1768945201.5603638
1768945201568.1765,1131.8681318681315,,1,1,1768945201.5681765
1768945201575.9888,1118.6813186813183,,1,1,1768945201.5759888
1768945201583.8013,1108.4249084249084,,1,1,1768945201.5838013
1768945201591.6138,1098.9010989010987,,1,1,1768945201.5916138
1768945201599.4265,1096.7032967032967,,1,1,1768945201.5994265
1768945201607.2388,1095.2380952380952,,1,1,1768945201.6072388
1768945201615.0513,1092.3076923076922,,1,1,1768945201.6150513
1768945201622.8638,1090.8424908424909,,1,1,1768945201.6228638
1768945201630.6765,1085.7142857142856,,1,1,1768945201.6306765
1768945201638.4888,1079.8534798534797,,1,1,1768945201.6384888
1768945201646.3013,1076.190476190476,,1,1,1768945201.6463013
1768945201654.1138,1073.260073260073,,1,1,1768945201.6541138
1768945201661.9265,1074.7252747252746,,1,1,1768945201.6619265
1768945201669.7388,1081.3186813186812,,1,1,1768945201.6697388
1768945201677.5513,1087.9120879120878,,1,1,1768945201.6775513
1768945201685.3638,1096.7032967032967,,1,1,1768945201.6853638
1768945201693.1765,1104.7619047619046,,1,1,1768945201.6931765
1768945201700.9888,1110.6227106227109,,1,1,1768945201.7009888
1768945201708.8013,1119.4139194139193,,1,1,1768945201.7088013
1768945201716.6138,1124.5421245421244,,1,1,1768945201.7166138
1768945201724.4265,1134.065934065934,,1,1,1768945201.7244265
1768945201732.2388,1136.2637362637363,,1,1,1768945201.7322388
1768945201740.0513,1144.3223443223442,,1,1,1768945201.7400513
1768945201747.8638,1150.9157509157508,,1,1,1768945201.7478638
1768945201755.6765,1158.974358974359,,1,1,1768945201.7556765
1768945201763.4888,1169.230769230769,,1,1,1768945201.7634888
1768945201771.3013,1169.230769230769,,1,1,1768945201.7713013
1768945201779.1138,1170.6959706959706,,1,1,1768945201.7791138
1768945201786.9265,1167.7655677655678,,1,1,1768945201.7869265
1768945201794.7388,1167.7655677655678,,1,1,1768945201.7947388
1768945201802.5513,1170.6959706959706,,1,1,1768945201.8025513
1768945201810.3638,1171.428571428571,,1,1,1768945201.8103638
1768945201818.1765,1178.021978021978,,1,1,1768945201.8181765
1768945201825.9888,1186.080586080586,,1,1,1768945201.8259888
1768945201833.8013,1192.6739926739926,,1,1,1768945201.8338013
1768945201841.6138,1197.069597069597,,1,1,1768945201.8416138
1768945201849.4265,1202.197802197802,,1,1,1768945201.8494265
1768945201857.2388,1200.7326007326008,,1,1,1768945201.8572388
1768945201865.0513,1201.4652014652013,,1,1,1768945201.8650513
1768945201872.8638,1203.6630036630036,,1,1,1768945201.8728638
1768945201880.6765,1200.7326007326008,,1,1,1768945201.8806765
1768945201888.4888,1204.3956043956043,,1,1,1768945201.8884888
1768945201896.3013,1205.128205128205,,1,1,1768945201.8963013
1768945201904.1138,1214.6520146520145,,1,1,1768945201.9041138
1768945201911.9265,1219.7802197802198,,1,1,1768945201.9119265
1768945201919.7388,1230.03663003663,,1,1,1768945201.9197388
1768945201927.5513,1238.8278388278388,,1,1,1768945201.9275513
1768945201935.3638,1249.8168498168498,,1,1,1768945201.9353638
1768945201943.1765,1260.805860805861,,1,1,1768945201.9431765
1768945201950.9888,1267.3992673992673,,1,1,1768945201.9509888
1768945201958.8013,1277.6556776556777,,1,1,1768945201.9588013
1768945201966.6138,1283.5164835164835,,1,1,1768945201.9666138
1768945201974.4265,1288.6446886446886,,1,1,1768945201.9744265
1768945201982.2388,1301.098901098901,,1,1,1768945201.9822388
1768945201990.0513,1309.89010989011,,1,1,1768945201.9900513
1768945201997.8638,1326.007326007326,,1,1,1768945201.9978638
1768945202005.6765,1342.857142857143,,1,1,1768945202.0056765
1768945202013.4888,1361.904761904762,,1,1,1768945202.0134888
1768945202021.3013,1376.5567765567764,,1,1,1768945202.0213013
1768945202029.1138,1383.8827838827838,,0,-1,1768945202.0291138
1768945202036.9265,1392.6739926739926,,0,-1,1768945202.0369265
1768945202044.7388,1397.8021978021975,,0,-1,1768945202.0447388
1768945202052.5513,1399.2673992673992,,0,-1,1768945202.0525513
1768945202060.3638,1401.4652014652013,,0,-1,1768945202.0603638
1768945202068.1765,1397.069597069597,,0,-1,1768945202.0681765
1768945202075.9888,1391.2087912087911,,0,-1,1768945202.0759888
1768945202083.8013,1383.150183150183,,0,-1,1768945202.0838013
1768945202091.6138,1380.2197802197802,,0,-1,1768945202.0916138
1768945202099.4265,1374.3589743589744,,0,-1,1768945202.0994265
1768945202107.2388,1369.230769230769,,0,-1,1768945202.1072388
1768945202115.0513,1366.3003663003662,,0,-1,1768945202.1150513
1768945202122.8638,1362.6373626373625,,0,-1,1768945202.1228638
1768945202130.6765,1358.974358974359,,0,-1,1768945202.1306765
1768945202138.4888,1353.113553113553,,0,-1,1768945202.1384888
1768945202146.3013,1347.985347985348,,0,-1,1768945202.1463013
1768945202154.1138,1346.5201465201465,,0,-1,1768945202.1541138
1768945202161.9265,1345.054945054945,,0,-1,1768945202.1619265
1768945202169.7388,1342.124542124542,,0,-1,1768945202.1697388
1768945202177.5513,1345.7875457875457,,0,-1,1768945202.1775513
1768945202185.3638,1350.18315018315,,0,-1,1768945202.1853638
1768945202193.1765,1350.9157509157508,,0,-1,1768945202.1931765
1768945202200.9888,1353.8461538461538,,0,-1,1768945202.2009888
1768945202208.8013,1356.7765567765566,,0,-1,1768945202.2088013
1768945202216.6138,1353.8461538461538,,0,-1,1768945202.2166138
1768945202224.4265,1353.8461538461538,,0,-1,1768945202.2244265
1768945202232.2388,1351.6483516483515,,0,-1,1768945202.2322388
1768945202240.0513,1343.5897435897434,,0,-1,1768945202.2400513
1768945202247.8638,1336.9963369963368,,0,-1,1768945202.2478638
1768945202255.6765,1325.2747252747251,,0,-1,1768945202.2556765
1768945202263.4888,1320.14652014652,,0,-1,1768945202.2634888
1768945202271.3013,1314.2857142857142,,0,-1,1768945202.2713013
1768945202279.1138,1311.3553113553112,,0,-1,1768945202.2791138
1768945202286.9265,1315.018315018315,,0,-1,1768945202.2869265
1768945202294.7388,1315.7509157509155,,0,-1,1768945202.2947388
1768945202302.5513,1320.14652014652,,0,-1,1768945202.3025513
1768945202310.3638,1323.8095238095236,,0,-1,1768945202.3103638
1768945202318.1765,1328.937728937729,,0,-1,1768945202.3181765
1768945202325.9888,1334.065934065934,,0,-1,1768945202.3259888
1768945202333.8013,1340.6593406593406,,0,-1,1768945202.3338013
1768945202341.6138,1342.124542124542,,0,-1,1768945202.3416138
1768945202349.4265,1340.6593406593406,,0,-1,1768945202.3494265
1768945202357.2388,1337.7289377289376,,0,-1,1768945202.3572388
1768945202365.0513,1334.7985347985348,,0,-1,1768945202.3650513
1768945202372.8638,1333.3333333333333,,0,-1,1768945202.3728638
1768945202380.6765,1330.4029304029302,,0,-1,1768945202.3806765
1768945202388.4888,1335.5311355311355,,0,-1,1768945202.3884888
1768945202396.3013,1336.9963369963368,,0,-1,1768945202.3963013
1768945202404.1138,1341.3919413919414,,0,-1,1768945202.4041138
1768945202411.9265,1338.4615384615383,,0,-1,1768945202.4119265
1768945202419.7388,1339.92673992674,,0,-1,1768945202.4197388
1768945202427.5513,1333.3333333333333,,0,-1,1768945202.4275513
1768945202435.3638,1328.937728937729,,0,-1,1768945202.4353638
1768945202443.1765,1319.4139194139193,,0,-1,1768945202.4431765
1768945202450.9888,1311.3553113553112,,0,-1,1768945202.4509888
1768945202458.8013,1301.8315018315018,,0,-1,1768945202.4588013
1768945202466.6138,1295.2380952380952,,0,-1,1768945202.4666138
1768945202474.4265,1287.179487179487,,0,-1,1768945202.4744265
1768945202482.2388,1281.3186813186812,,0,-1,1768945202.4822388
1768945202490.0513,1274.7252747252746,,0,-1,1768945202.4900513
1768945202497.8638,1273.260073260073,,0,-1,1768945202.4978638
1768945202505.6765,1269.5970695970695,,0,-1,1768945202.5056765
1768945202513.4888,1272.5274725274724,,0,-1,1768945202.5134888
1768945202521.3013,1272.5274725274724,,0,-1,1768945202.5213013
1768945202529.1138,1273.992673992674,,0,-1,1768945202.5291138
1768945202536.9265,1272.5274725274724,,0,-1,1768945202.5369265
1768945202544.7388,1276.190476190476,,0,-1,1768945202.5447388
1768945202552.5513,1277.6556776556777,,0,-1,1768945202.5525513
1768945202560.3638,1283.5164835164835,,0,-1,1768945202.5603638
1768945202568.1765,1282.7838827838827,,0,-1,1768945202.5681765
1768945202575.9888,1284.2490842490845,,0,-1,1768945202.5759888
1768945202583.8013,1282.051282051282,,0,-1,1768945202.5838013
1768945202591.6138,1281.3186813186812,,0,-1,1768945202.5916138
1768945202599.4265,1282.051282051282,,0,-1,1768945202.5994265
1768945202607.2388,1277.6556776556777,,0,-1,1768945202.6072388
1768945202615.0513,1275.4578754578754,,0,-1,1768945202.6150513
1768945202622.8638,1271.062271062271,,0,-1,1768945202.6228638
1768945202630.6765,1271.7948717948716,,0,-1,1768945202.6306765
1768945202638.4888,1278.3882783882782,,0,-1,1768945202.6384888
1768945202646.3013,1282.051282051282,,0,-1,1768945202.6463013
1768945202654.1138,1288.6446886446886,,0,-1,1768945202.6541138
1768945202661.9265,1297.4358974358977,,0,-1,1768945202.6619265
1768945202669.7388,1300.3663003663005,,0,-1,1768945202.6697388
1768945202677.5513,1301.098901098901,,0,-1,1768945202.6775513
1768945202685.3638,1302.5641025641023,,0,-1,1768945202.6853638
1768945202693.1765,1298.168498168498,,0,-1,1768945202.6931765
1768945202700.9888,1295.970695970696,,0,-1,1768945202.7009888
1768945202708.8013,1293.040293040293,,0,-1,1768945202.7088013
1768945202716.6138,1293.7728937728937,,0,-1,1768945202.7166138
1768945202724.4265,1298.168498168498,,0,-1,1768945202.7244265
1768945202732.2388,1299.6336996336995,,0,-1,1768945202.7322388
1768945202740.0513,1303.2967032967033,,0,-1,1768945202.7400513
1768945202747.8638,1303.2967032967033,,0,-1,1768945202.7478638
1768945202755.6765,1304.0293040293038,,0,-1,1768945202.7556765
1768945202763.4888,1307.6923076923076,,0,-1,1768945202.7634888
1768945202771.3013,1314.2857142857142,,0,-1,1768945202.7713013
1768945202779.1138,1326.007326007326,,0,-1,1768945202.7791138
1768945202786.9265,1336.263736263736,,0,-1,1768945202.7869265
1768945202794.7388,1345.7875457875457,,0,-1,1768945202.7947388
1768945202802.5513,1353.8461538461538,,0,-1,1768945202.8025513
1768945202810.3638,1364.8351648351647,,0,-1,1768945202.8103638
1768945202818.1765,1368.4981684981683,,0,-1,1768945202.8181765
1768945202825.9888,1372.161172161172,,0,-1,1768945202.8259888
1768945202833.8013,1378.021978021978,,0,-1,1768945202.8338013
1768945202841.6138,1383.150183150183,,0,-1,1768945202.8416138
1768945202849.4265,1384.6153846153843,,0,-1,1768945202.8494265
1768945202857.2388,1389.0109890109889,,0,-1,1768945202.8572388
1768945202865.0513,1393.4065934065934,,0,-1,1768945202.8650513
1768945202872.8638,1393.4065934065934,,0,-1,1768945202.8728638
1768945202880.6765,1393.4065934065934,,0,-1,1768945202.8806765
1768945202888.4888,1390.4761904761904,,0,-1,1768945202.8884888
1768945202896.3013,1388.278388278388,,0,-1,1768945202.8963013
1768945202904.1138,1386.8131868131868,,0,-1,1768945202.9041138
1768945202911.9265,1388.278388278388,,0,-1,1768945202.9119265
1768945202919.7388,1386.8131868131868,,0,-1,1768945202.9197388
1768945202927.5513,1386.080586080586,,0,-1,1768945202.9275513
1768945202935.3638,1380.952380952381,,0,-1,1768945202.9353638
1768945202943.1765,1374.3589743589744,,0,-1,1768945202.9431765
1768945202950.9888,1375.091575091575,,0,-1,1768945202.9509888
1768945202958.8013,1380.2197802197802,,0,-1,1768945202.9588013
1768945202966.6138,1387.5457875457876,,0,-1,1768945202.9666138
1768945202974.4265,1393.4065934065934,,0,-1,1768945202.9744265
1768945202982.2388,1398.5347985347985,,0,-1,1768945202.9822388
1768945202990.0513,1402.197802197802,,0,-1,1768945202.9900513
1768945202997.8638,1405.128205128205,,0,-1,1768945202.9978638
1768945203005.6765,1402.197802197802,,0,-1,1768945203.0056765
1768945203013.4888,1393.4065934065934,,0,-1,1768945203.0134888
1768945203021.3013,1386.8131868131868,,0,-1,1768945203.0213013
1768945203029.1138,1380.2197802197802,,0,-1,1768945203.0291138
1768945203036.9265,1377.2893772893772,,0,-1,1768945203.0369265
1768945203044.7388,1377.2893772893772,,0,-1,1768945203.0447388
1768945203052.5513,1375.8241758241757,,0,-1,1768945203.0525513
1768945203060.3638,1379.4871794871794,,0,-1,1768945203.0603638
1768945203068.1765,1379.4871794871794,,0,-1,1768945203.0681765
1768945203075.9888,1381.6849816849815,,0,-1,1768945203.0759888
1768945203083.8013,1383.150183150183,,0,-1,1768945203.0838013
1768945203091.6138,1378.7545787545787,,0,-1,1768945203.0916138
1768945203099.4265,1378.021978021978,,0,-1,1768945203.0994265
1768945203107.2388,1372.161172161172,,0,-1,1768945203.1072388
1768945203115.0513,1365.5677655677655,,0,-1,1768945203.1150513
1768945203122.8638,1358.974358974359,,0,-1,1768945203.1228638
1768945203130.6765,1354.5787545787546,,0,-1,1768945203.1306765
1768945203138.4888,1349.4505494505493,,0,-1,1768945203.1384888
1768945203146.3013,1344.3223443223442,,0,-1,1768945203.1463013
1768945203154.1138,1341.3919413919414,,0,-1,1768945203.1541138
1768945203161.9265,1336.263736263736,,0,-1,1768945203.1619265
1768945203169.7388,1334.7985347985348,,0,-1,1768945203.1697388
1768945203177.5513,1336.263736263736,,0,-1,1768945203.1775513
1768945203185.3638,1330.4029304029302,,0,-1,1768945203.1853638
1768945203193.1765,1326.739926739927,,0,-1,1768945203.1931765
1768945203200.9888,1323.8095238095236,,0,-1,1768945203.2009888
1768945203208.8013,1319.4139194139193,,0,-1,1768945203.2088013
1768945203216.6138,1319.4139194139193,,0,-1,1768945203.2166138
1768945203224.4265,1314.2857142857142,,0,-1,1768945203.2244265
1768945203232.2388,1308.4249084249084,,0,-1,1768945203.2322388
1768945203240.0513,1307.6923076923076,,0,-1,1768945203.2400513
1768945203247.8638,1304.0293040293038,,0,-1,1768945203.2478638
1768945203255.6765,1304.7619047619046,,0,-1,1768945203.2556765
1768945203263.4888,1308.4249084249084,,0,-1,1768945203.2634888
1768945203271.3013,1309.1575091575091,,0,-1,1768945203.2713013
1768945203279.1138,1315.7509157509155,,0,-1,1768945203.2791138
1768945203286.9265,1317.9487179487178,,0,-1,1768945203.2869265
1768945203294.7388,1323.8095238095236,,0,-1,1768945203.2947388
1768945203302.5513,1323.8095238095236,,0,-1,1768945203.3025513
1768945203310.3638,1327.4725274725274,,0,-1,1768945203.3103638
1768945203318.1765,1326.007326007326,,0,-1,1768945203.3181765
1768945203325.9888,1327.4725274725274,,0,-1,1768945203.3259888
1768945203333.8013,1330.4029304029302,,0,-1,1768945203.3338013
1768945203341.6138,1327.4725274725274,,0,-1,1768945203.3416138
1768945203349.4265,1325.2747252747251,,0,-1,1768945203.3494265
1768945203357.2388,1326.007326007326,,0,-1,1768945203.3572388
1768945203365.0513,1326.007326007326,,0,-1,1768945203.3650513
1768945203372.8638,1326.739926739927,,0,-1,1768945203.3728638
1768945203380.6765,1331.135531135531,,0,-1,1768945203.3806765
1768945203388.4888,1337.7289377289376,,0,-1,1768945203.3884888
1768945203396.3013,1339.194139194139,,0,-1,1768945203.3963013
1768945203404.1138,1335.5311355311355,,0,-1,1768945203.4041138
1768945203411.9265,1332.6007326007325,,0,-1,1768945203.4119265
1768945203419.7388,1333.3333333333333,,0,-1,1768945203.4197388
1768945203427.5513,1331.135531135531,,0,-1,1768945203.4275513
1768945203435.3638,1326.739926739927,,0,-1,1768945203.4353638
1768945203443.1765,1320.8791208791208,,0,-1,1768945203.4431765
1768945203450.9888,1320.14652014652,,0,-1,1768945203.4509888
1768945203458.8013,1317.9487179487178,,0,-1,1768945203.4588013
1768945203466.6138,1315.018315018315,,0,-1,1768945203.4666138
1768945203474.4265,1311.3553113553112,,0,-1,1768945203.4744265
1768945203482.2388,1309.89010989011,,0,-1,1768945203.4822388
1768945203490.0513,1307.6923076923076,,0,-1,1768945203.4900513
1768945203497.8638,1304.0293040293038,,0,-1,1768945203.4978638
1768945203505.6765,1304.7619047619046,,0,-1,1768945203.5056765
1768945203513.4888,1306.9597069597069,,0,-1,1768945203.5134888
1768945203521.3013,1313.5531135531137,,0,-1,1768945203.5213013
1768945203529.1138,1322.3443223443223,,0,-1,1768945203.5291138
1768945203536.9265,1328.937728937729,,0,-1,1768945203.5369265
1768945203544.7388,1331.135531135531,,0,-1,1768945203.5447388
1768945203552.5513,1334.7985347985348,,0,-1,1768945203.5525513
1768945203560.3638,1339.92673992674,,0,-1,1768945203.5603638
1768945203568.1765,1347.2527472527472,,0,-1,1768945203.5681765
1768945203575.9888,1357.5091575091574,,0,-1,1768945203.5759888
1768945203583.8013,1369.230769230769,,0,-1,1768945203.5838013
1768945203591.6138,1380.952380952381,,0,-1,1768945203.5916138
1768945203599.4265,1383.150183150183,,0,-1,1768945203.5994265
1768945203607.2388,1386.080586080586,,0,-1,1768945203.6072388
1768945203615.0513,1384.6153846153843,,0,-1,1768945203.6150513
1768945203622.8638,1379.4871794871794,,0,-1,1768945203.6228638
1768945203630.6765,1378.7545787545787,,0,-1,1768945203.6306765
1768945203638.4888,1378.021978021978,,0,-1,1768945203.6384888
1768945203646.3013,1374.3589743589744,,0,-1,1768945203.6463013
1768945203654.1138,1371.428571428571,,0,-1,1768945203.6541138
1768945203661.9265,1369.9633699633698,,0,-1,1768945203.6619265
1768945203669.7388,1367.7655677655678,,0,-1,1768945203.6697388
1768945203677.5513,1365.5677655677655,,0,-1,1768945203.6775513
1768945203685.3638,1365.5677655677655,,0,-1,1768945203.6853638
1768945203693.1765,1368.4981684981683,,0,-1,1768945203.6931765
1768945203700.9888,1373.6263736263736,,0,-1,1768945203.7009888
1768945203708.8013,1375.8241758241757,,0,-1,1768945203.7088013
1768945203716.6138,1377.2893772893772,,0,-1,1768945203.7166138
1768945203724.4265,1380.2197802197802,,0,-1,1768945203.7244265
1768945203732.2388,1383.150183150183,,0,-1,1768945203.7322388
1768945203740.0513,1386.8131868131868,,0,-1,1768945203.7400513
1768945203747.8638,1391.2087912087911,,0,-1,1768945203.7478638
1768945203755.6765,1397.8021978021975,,0,-1,1768945203.7556765
1768945203763.4888,1402.9304029304028,,0,-1,1768945203.7634888
1768945203771.3013,1406.5934065934066,,0,-1,1768945203.7713013
1768945203779.1138,1406.5934065934066,,0,-1,1768945203.7791138
1768945203786.9265,1404.3956043956043,,0,-1,1768945203.7869265
1768945203794.7388,1400.0,,0,-1,1768945203.7947388
1768945203802.5513,1394.139194139194,,0,-1,1768945203.8025513
1768945203810.3638,1386.8131868131868,,0,-1,1768945203.8103638
1768945203818.1765,1380.952380952381,,0,-1,1768945203.8181765
1768945203825.9888,1375.091575091575,,0,-1,1768945203.8259888
1768945203833.8013,1369.9633699633698,,0,-1,1768945203.8338013
1768945203841.6138,1365.5677655677655,,0,-1,1768945203.8416138
1768945203849.4265,1359.7069597069597,,0,-1,1768945203.8494265
1768945203857.2388,1357.5091575091574,,0,-1,1768945203.8572388
1768945203865.0513,1356.7765567765566,,0,-1,1768945203.8650513
1768945203872.8638,1356.043956043956,,0,-1,1768945203.8728638
1768945203880.6765,1355.311355311355,,0,-1,1768945203.8806765
1768945203888.4888,1356.043956043956,,0,-1,1768945203.8884888
1768945203896.3013,1357.5091575091574,,0,-1,1768945203.8963013
1768945203904.1138,1358.241758241758,,0,-1,1768945203.9041138
1768945203911.9265,1361.904761904762,,0,-1,1768945203.9119265
1768945203919.7388,1362.6373626373625,,0,-1,1768945203.9197388
1768945203927.5513,1367.032967032967,,0,-1,1768945203.9275513
1768945203935.3638,1372.161172161172,,0,-1,1768945203.9353638
1768945203943.1765,1378.021978021978,,0,-1,1768945203.9431765
1768945203950.9888,1383.150183150183,,0,-1,1768945203.9509888
1768945203958.8013,1386.080586080586,,0,-1,1768945203.9588013
1768945203966.6138,1386.8131868131868,,0,-1,1768945203.9666138
1768945203974.4265,1386.080586080586,,0,-1,1768945203.9744265
1768945203982.2388,1381.6849816849815,,0,-1,1768945203.9822388
1768945203990.0513,1374.3589743589744,,0,-1,1768945203.9900513
1768945203997.8638,1367.7655677655678,,0,-1,1768945203.9978638
1768945204005.6765,1362.6373626373625,,0,-1,1768945204.0056765
1768945204013.4888,1355.311355311355,,0,-1,1768945204.0134888
1768945204021.3013,1353.113553113553,,0,-1,1768945204.0213013
1768945204029.1138,1351.6483516483515,,0,-1,1768945204.0291138
1768945204036.9265,1347.2527472527472,,0,-1,1768945204.0369265
1768945204044.7388,1342.124542124542,,0,-1,1768945204.0447388
1768945204052.5513,1336.9963369963368,,0,-1,1768945204.0525513
1768945204060.3638,1334.065934065934,,0,-1,1768945204.0603638
1768945204068.1765,1331.8681318681315,,0,-1,1768945204.0681765
1768945204075.9888,1331.135531135531,,0,-1,1768945204.0759888
1768945204083.8013,1329.6703296703297,,0,-1,1768945204.0838013
1768945204091.6138,1326.007326007326,,0,-1,1768945204.0916138
1768945204099.4265,1323.076923076923,,0,-1,1768945204.0994265
1768945204107.2388,1315.018315018315,,0,-1,1768945204.1072388
1768945204115.0513,1306.9597069597069,,0,-1,1768945204.1150513
1768945204122.8638,1298.168498168498,,0,-1,1768945204.1228638
1768945204130.6765,1287.179487179487,,0,-1,1768945204.1306765
1768945204138.4888,1272.5274725274724,,0,-1,1768945204.1384888
1768945204146.3013,1251.2820512820513,,0,-1,1768945204.1463013
1768945204154.1138,1230.7692307692307,,0,-1,1768945204.1541138
1768945204161.9265,1211.7216117216117,,0,-1,1768945204.1619265
1768945204169.7388,1198.5347985347985,,0,-1,1768945204.1697388
1768945204177.5513,1191.2087912087911,,0,-1,1768945204.1775513
1768945204185.3638,1189.0109890109889,,0,-1,1768945204.1853638
1768945204193.1765,1197.069597069597,,0,-1,1768945204.1931765
1768945204200.9888,1209.5238095238094,,0,-1,1768945204.2009888
1768945204208.8013,1224.175824175824,,0,-1,1768945204.2088013
1768945204216.6138,1240.29304029304,,0,-1,1768945204.2166138
1768945204224.4265,1262.2710622710622,,0,-1,1768945204.2244265
1768945204232.2388,1283.5164835164835,,0,-1,1768945204.2322388
1768945204240.0513,1304.7619047619046,,0,-1,1768945204.2400513
1768945204247.8638,1326.007326007326,,0,-1,1768945204.2478638
1768945204255.6765,1345.054945054945,,0,-1,1768945204.2556765
1768945204263.4888,1358.974358974359,,0,-1,1768945204.2634888
1768945204271.3013,1369.9633699633698,,0,-1,1768945204.2713013
1768945204279.1138,1381.6849816849815,,0,-1,1768945204.2791138
1768945204286.9265,1388.278388278388,,0,-1,1768945204.2869265
1768945204294.7388,1394.8717948717947,,0,-1,1768945204.2947388
1768945204302.5513,1397.069597069597,,0,-1,1768945204.3025513
1768945204310.3638,1395.6043956043954,,0,-1,1768945204.3103638
1768945204318.1765,1394.139194139194,,0,-1,1768945204.3181765
1768945204325.9888,1391.2087912087911,,0,-1,1768945204.3259888
1768945204333.8013,1388.278388278388,,0,-1,1768945204.3338013
1768945204341.6138,1380.2197802197802,,0,-1,1768945204.3416138
1768945204349.4265,1372.161172161172,,0,-1,1768945204.3494265
1768945204357.2388,1364.8351648351647,,0,-1,1768945204.3572388
1768945204365.0513,1358.241758241758,,0,-1,1768945204.3650513
1768945204372.8638,1352.3809523809523,,0,-1,1768945204.3728638
1768945204380.6765,1347.2527472527472,,0,-1,1768945204.3806765
1768945204388.4888,1342.124542124542,,0,-1,1768945204.3884888
1768945204396.3013,1335.5311355311355,,0,-1,1768945204.3963013
1768945204404.1138,1329.6703296703297,,0,-1,1768945204.4041138
1768945204411.9265,1326.007326007326,,0,-1,1768945204.4119265
1768945204419.7388,1320.14652014652,,0,-1,1768945204.4197388
1768945204427.5513,1312.087912087912,,0,-1,1768945204.4275513
1768945204435.3638,1306.227106227106,,0,-1,1768945204.4353638
1768945204443.1765,1295.2380952380952,,0,-1,1768945204.4431765
1768945204450.9888,1282.7838827838827,,0,-1,1768945204.4509888
1768945204458.8013,1270.3296703296703,,0,-1,1768945204.4588013
1768945204466.6138,1257.875457875458,,0,-1,1768945204.4666138
1768945204474.4265,1249.084249084249,,0,-1,1768945204.4744265
1768945204482.2388,1244.688644688645,,0,-1,1768945204.4822388
1768945204490.0513,1242.4908424908424,,0,-1,1768945204.4900513
1768945204497.8638,1239.5604395604396,,0,-1,1768945204.4978638
1768945204505.6765,1236.6300366300366,,0,-1,1768945204.5056765
1768945204513.4888,1233.6996336996335,,0,-1,1768945204.5134888
1768945204521.3013,1231.5018315018317,,0,-1,1768945204.5213013
1768945204529.1138,1232.2344322344322,,0,-1,1768945204.5291138
1768945204536.9265,1232.967032967033,,0,-1,1768945204.5369265
1768945204544.7388,1236.6300366300366,,0,-1,1768945204.5447388
1768945204552.5513,1245.4212454212454,,0,-1,1768945204.5525513
1768945204560.3638,1259.3406593406592,,0,-1,1768945204.5603638
1768945204568.1765,1277.6556776556777,,0,-1,1768945204.5681765
1768945204575.9888,1297.4358974358977,,0,-1,1768945204.5759888
1768945204583.8013,1320.14652014652,,0,-1,1768945204.5838013
1768945204591.6138,1342.124542124542,,0,-1,1768945204.5916138
1768945204599.4265,1358.974358974359,,0,-1,1768945204.5994265
1768945204607.2388,1367.7655677655678,,0,-1,1768945204.6072388
1768945204615.0513,1370.6959706959706,,0,-1,1768945204.6150513
1768945204622.8638,1365.5677655677655,,0,-1,1768945204.6228638
1768945204630.6765,1357.5091575091574,,0,-1,1768945204.6306765
1768945204638.4888,1348.7179487179487,,0,-1,1768945204.6384888
1768945204646.3013,1338.4615384615383,,0,-1,1768945204.6463013
1768945204654.1138,1328.937728937729,,0,-1,1768945204.6541138
1768945204661.9265,1319.4139194139193,,0,-1,1768945204.6619265
1768945204669.7388,1312.087912087912,,0,-1,1768945204.6697388
1768945204677.5513,1306.227106227106,,0,-1,1768945204.6775513
1768945204685.3638,1304.0293040293038,,0,-1,1768945204.6853638
1768945204693.1765,1301.8315018315018,,0,-1,1768945204.6931765
1768945204700.9888,1297.4358974358977,,0,-1,1768945204.7009888
1768945204708.8013,1292.3076923076922,,0,-1,1768945204.7088013
1768945204716.6138,1285.7142857142856,,0,-1,1768945204.7166138
1768945204724.4265,1279.8534798534797,,0,-1,1768945204.7244265
1768945204732.2388,1274.7252747252746,,0,-1,1768945204.7322388
1768945204740.0513,1266.6666666666663,,0,-1,1768945204.7400513
1768945204747.8638,1257.875457875458,,0,-1,1768945204.7478638
1768945204755.6765,1250.5494505494505,,0,-1,1768945204.7556765
1768945204763.4888,1245.4212454212454,,0,-1,1768945204.7634888
1768945204771.3013,1245.4212454212454,,0,-1,1768945204.7713013
1768945204779.1138,1248.3516483516482,,0,-1,1768945204.7791138
1768945204786.9265,1254.212454212454,,0,-1,1768945204.7869265
1768945204794.7388,1254.212454212454,,0,-1,1768945204.7947388
1768945204802.5513,1256.4102564102564,,0,-1,1768945204.8025513
1768945204810.3638,1258.6080586080586,,0,-1,1768945204.8103638
1768945204818.1765,1263.003663003663,,0,-1,1768945204.8181765
1768945204825.9888,1264.4688644688645,,0,-1,1768945204.8259888
1768945204833.8013,1268.131868131868,,0,-1,1768945204.8338013
1768945204841.6138,1273.260073260073,,0,-1,1768945204.8416138
1768945204849.4265,1285.7142857142856,,0,-1,1768945204.8494265
1768945204857.2388,1297.4358974358977,,0,-1,1768945204.8572388
1768945204865.0513,1307.6923076923076,,0,-1,1768945204.8650513
1768945204872.8638,1317.9487179487178,,0,-1,1768945204.8728638
1768945204880.6765,1324.5421245421244,,0,-1,1768945204.8806765
1768945204888.4888,1328.937728937729,,0,-1,1768945204.8884888
1768945204896.3013,1334.065934065934,,0,-1,1768945204.8963013
1768945204904.1138,1337.7289377289376,,0,-1,1768945204.9041138
1768945204911.9265,1339.92673992674,,0,-1,1768945204.9119265
1768945204919.7388,1339.92673992674,,0,-1,1768945204.9197388
1768945204927.5513,1343.5897435897434,,0,-1,1768945204.9275513
1768945204935.3638,1348.7179487179487,,0,-1,1768945204.9353638
1768945204943.1765,1354.5787545787546,,0,-1,1768945204.9431765
1768945204950.9888,1363.3699633699632,,0,-1,1768945204.9509888
1768945204958.8013,1370.6959706959706,,0,-1,1768945204.9588013
1768945204966.6138,1374.3589743589744,,0,-1,1768945204.9666138
1768945204974.4265,1374.3589743589744,,0,-1,1768945204.9744265
1768945204982.2388,1369.9633699633698,,0,-1,1768945204.9822388
1768945204990.0513,1360.4395604395604,,0,-1,1768945204.9900513
1768945204997.8638,1347.985347985348,,0,-1,1768945204.9978638
1768945205005.6765,1335.5311355311355,,0,-1,1768945205.0056765
1768945205013.4888,1321.6117216117216,,0,-1,1768945205.0134888
1768945205021.3013,1309.1575091575091,,0,-1,1768945205.0213013
1768945205029.1138,1295.970695970696,,0,-1,1768945205.0291138
1768945205036.9265,1286.4468864468863,,0,-1,1768945205.0369265
1768945205044.7388,1276.923076923077,,0,-1,1768945205.0447388
1768945205052.5513,1269.5970695970695,,0,-1,1768945205.0525513
1768945205060.3638,1269.5970695970695,,0,-1,1768945205.0603638
1768945205068.1765,1272.5274725274724,,0,-1,1768945205.0681765
1768945205075.9888,1275.4578754578754,,0,-1,1768945205.0759888
1768945205083.8013,1279.8534798534797,,0,-1,1768945205.0838013
1768945205091.6138,1279.8534798534797,,0,-1,1768945205.0916138
1768945205099.4265,1283.5164835164835,,0,-1,1768945205.0994265
1768945205107.2388,1284.9816849816848,,0,-1,1768945205.1072388
1768945205115.0513,1290.10989010989,,0,-1,1768945205.1150513
1768945205122.8638,1292.3076923076922,,0,-1,1768945205.1228638
1768945205130.6765,1295.970695970696,,0,-1,1768945205.1306765
1768945205138.4888,1301.8315018315018,,0,-1,1768945205.1384888
1768945205146.3013,1307.6923076923076,,0,-1,1768945205.1463013
1768945205154.1138,1315.018315018315,,0,-1,1768945205.1541138
1768945205161.9265,1320.14652014652,,0,-1,1768945205.1619265
1768945205169.7388,1325.2747252747251,,0,-1,1768945205.1697388
1768945205177.5513,1329.6703296703297,,0,-1,1768945205.1775513
1768945205185.3638,1332.6007326007325,,0,-1,1768945205.1853638
1768945205193.1765,1336.263736263736,,0,-1,1768945205.1931765
1768945205200.9888,1340.6593406593406,,0,-1,1768945205.2009888
1768945205208.8013,1345.7875457875457,,0,-1,1768945205.2088013
1768945205216.6138,1350.9157509157508,,0,-1,1768945205.2166138
1768945205224.4265,1356.043956043956,,0,-1,1768945205.2244265
1768945205232.2388,1362.6373626373625,,0,-1,1768945205.2322388
1768945205240.0513,1366.3003663003662,,0,-1,1768945205.2400513
1768945205247.8638,1369.9633699633698,,0,-1,1768945205.2478638
1768945205255.6765,1375.091575091575,,0,-1,1768945205.2556765
1768945205263.4888,1384.6153846153843,,0,-1,1768945205.2634888
1768945205271.3013,1391.2087912087911,,0,-1,1768945205.2713013
1768945205279.1138,1392.6739926739926,,0,-1,1768945205.2791138
1768945205286.9265,1392.6739926739926,,0,-1,1768945205.2869265
1768945205294.7388,1393.4065934065934,,0,-1,1768945205.2947388
1768945205302.5513,1396.3369963369962,,0,-1,1768945205.3025513
1768945205310.3638,1398.5347985347985,,0,-1,1768945205.3103638
1768945205318.1765,1401.4652014652013,,0,-1,1768945205.3181765
1768945205325.9888,1402.197802197802,,0,-1,1768945205.3259888
1768945205333.8013,1400.7326007326003,,0,-1,1768945205.3338013
1768945205341.6138,1400.0,,0,-1,1768945205.3416138
1768945205349.4265,1394.8717948717947,,0,-1,1768945205.3494265
1768945205357.2388,1388.278388278388,,0,-1,1768945205.3572388
1768945205365.0513,1379.4871794871794,,0,-1,1768945205.3650513
1768945205372.8638,1372.8937728937728,,0,-1,1768945205.3728638
1768945205380.6765,1368.4981684981683,,0,-1,1768945205.3806765
1768945205388.4888,1364.8351648351647,,0,-1,1768945205.3884888
1768945205396.3013,1358.241758241758,,0,-1,1768945205.3963013
1768945205404.1138,1350.18315018315,,0,-1,1768945205.4041138
1768945205411.9265,1344.3223443223442,,0,-1,1768945205.4119265
1768945205419.7388,1342.124542124542,,0,-1,1768945205.4197388
1768945205427.5513,1339.92673992674,,0,-1,1768945205.4275513
1768945205435.3638,1342.124542124542,,0,-1,1768945205.4353638
1768945205443.1765,1345.054945054945,,0,-1,1768945205.4431765
1768945205450.9888,1347.985347985348,,0,-1,1768945205.4509888
1768945205458.8013,1347.985347985348,,0,-1,1768945205.4588013
1768945205466.6138,1350.18315018315,,0,-1,1768945205.4666138
1768945205474.4265,1356.043956043956,,0,-1,1768945205.4744265
1768945205482.2388,1364.8351648351647,,0,-1,1768945205.4822388
1768945205490.0513,1374.3589743589744,,0,-1,1768945205.4900513
1768945205497.8638,1383.150183150183,,0,-1,1768945205.4978638
1768945205505.6765,1394.139194139194,,0,-1,1768945205.5056765
1768945205513.4888,1397.8021978021975,,0,-1,1768945205.5134888
1768945205521.3013,1398.5347985347985,,0,-1,1768945205.5213013
1768945205529.1138,1394.8717948717947,,0,-1,1768945205.5291138
1768945205536.9265,1393.4065934065934,,0,-1,1768945205.5369265
1768945205544.7388,1391.941391941392,,0,-1,1768945205.5447388
1768945205552.5513,1391.2087912087911,,0,-1,1768945205.5525513
1768945205560.3638,1389.0109890109889,,0,-1,1768945205.5603638
1768945205568.1765,1385.3479853479853,,0,-1,1768945205.5681765
1768945205575.9888,1383.8827838827838,,0,-1,1768945205.5759888
1768945205583.8013,1378.7545787545787,,0,-1,1768945205.5838013
1768945205591.6138,1371.428571428571,,0,-1,1768945205.5916138
1768945205599.4265,1360.4395604395604,,0,-1,1768945205.5994265
1768945205607.2388,1348.7179487179487,,0,-1,1768945205.6072388
1768945205615.0513,1339.92673992674,,0,-1,1768945205.6150513
1768945205622.8638,1331.135531135531,,0,-1,1768945205.6228638
1768945205630.6765,1323.076923076923,,0,-1,1768945205.6306765
1768945205638.4888,1316.4835164835165,,0,-1,1768945205.6384888
1768945205646.3013,1315.7509157509155,,0,-1,1768945205.6463013
1768945205654.1138,1317.216117216117,,0,-1,1768945205.6541138
1768945205661.9265,1315.7509157509155,,0,-1,1768945205.6619265
1768945205669.7388,1313.5531135531137,,0,-1,1768945205.6697388
1768945205677.5513,1308.4249084249084,,0,-1,1768945205.6775513
1768945205685.3638,1301.8315018315018,,0,-1,1768945205.6853638
1768945205693.1765,1297.4358974358977,,0,-1,1768945205.6931765
1768945205700.9888,1298.9010989010987,,0,-1,1768945205.7009888
1768945205708.8013,1303.2967032967033,,0,-1,1768945205.7088013
1768945205716.6138,1309.89010989011,,0,-1,1768945205.7166138
1768945205724.4265,1317.216117216117,,0,-1,1768945205.7244265
1768945205732.2388,1324.5421245421244,,0,-1,1768945205.7322388
1768945205740.0513,1328.2051282051282,,0,-1,1768945205.7400513
1768945205747.8638,1328.937728937729,,0,-1,1768945205.7478638
1768945205755.6765,1327.4725274725274,,0,-1,1768945205.7556765
1768945205763.4888,1327.4725274725274,,0,-1,1768945205.7634888
1768945205771.3013,1329.6703296703297,,0,-1,1768945205.7713013
1768945205779.1138,1330.4029304029302,,0,-1,1768945205.7791138
1768945205786.9265,1328.2051282051282,,0,-1,1768945205.7869265
1768945205794.7388,1323.076923076923,,0,-1,1768945205.7947388
1768945205802.5513,1318.6813186813183,,0,-1,1768945205.8025513
1768945205810.3638,1313.5531135531137,,0,-1,1768945205.8103638
1768945205818.1765,1308.4249084249084,,0,-1,1768945205.8181765
1768945205825.9888,1302.5641025641023,,0,-1,1768945205.8259888
1768945205833.8013,1300.3663003663005,,0,-1,1768945205.8338013
1768945205841.6138,1298.168498168498,,0,-1,1768945205.8416138
1768945205849.4265,1301.098901098901,,0,-1,1768945205.8494265
1768945205857.2388,1306.227106227106,,0,-1,1768945205.8572388
1768945205865.0513,1305.4945054945051,,0,-1,1768945205.8650513
1768945205872.8638,1306.227106227106,,0,-1,1768945205.8728638
1768945205880.6765,1309.1575091575091,,0,-1,1768945205.8806765
1768945205888.4888,1307.6923076923076,,0,-1,1768945205.8884888
1768945205896.3013,1304.7619047619046,,0,-1,1768945205.8963013
1768945205904.1138,1306.9597069597069,,0,-1,1768945205.9041138
1768945205911.9265,1308.4249084249084,,0,-1,1768945205.9119265
1768945205919.7388,1307.6923076923076,,0,-1,1768945205.9197388
1768945205927.5513,1306.9597069597069,,0,-1,1768945205.9275513
1768945205935.3638,1312.8205128205127,,0,-1,1768945205.9353638
1768945205943.1765,1312.8205128205127,,0,-1,1768945205.9431765
1768945205950.9888,1321.6117216117216,,0,-1,1768945205.9509888
1768945205958.8013,1329.6703296703297,,0,-1,1768945205.9588013
1768945205966.6138,1342.124542124542,,0,-1,1768945205.9666138
1768945205974.4265,1352.3809523809523,,0,-1,1768945205.9744265
1768945205982.2388,1365.5677655677655,,0,-1,1768945205.9822388
1768945205990.0513,1373.6263736263736,,0,-1,1768945205.9900513
1768945205997.8638,1383.150183150183,,0,-1,1768945205.9978638
1768945206005.6765,1383.150183150183,,0,-1,1768945206.0056765
1768945206013.4888,1383.8827838827838,,0,-1,1768945206.0134888
1768945206021.3013,1380.2197802197802,,0,-1,1768945206.0213013
1768945206029.1138,1375.091575091575,,0,-1,1768945206.0291138
1768945206036.9265,1378.7545787545787,,0,-1,1768945206.0369265
1768945206044.7388,1380.2197802197802,,0,-1,1768945206.0447388
1768945206052.5513,1388.278388278388,,0,-1,1768945206.0525513
1768945206060.3638,1398.5347985347985,,0,-1,1768945206.0603638
1768945206068.1765,1406.5934065934066,,0,-1,1768945206.0681765
1768945206075.9888,1414.6520146520145,,0,-1,1768945206.0759888
1768945206083.8013,1424.175824175824,,0,-1,1768945206.0838013
1768945206091.6138,1427.8388278388277,,0,-1,1768945206.0916138
1768945206099.4265,1436.6300366300366,,0,-1,1768945206.0994265
1768945206107.2388,1444.688644688645,,0,-1,1768945206.1072388
1768945206115.0513,1448.3516483516482,,0,-1,1768945206.1150513
1768945206122.8638,1449.8168498168498,,0,-1,1768945206.1228638
1768945206130.6765,1443.956043956044,,0,-1,1768945206.1306765
1768945206138.4888,1441.7582417582416,,0,-1,1768945206.1384888
1768945206146.3013,1434.4322344322345,,0,-1,1768945206.1463013
1768945206154.1138,1424.175824175824,,0,-1,1768945206.1541138
1768945206161.9265,1419.047619047619,,0,-1,1768945206.1619265
1768945206169.7388,1410.989010989011,,0,-1,1768945206.1697388
1768945206177.5513,1408.058608058608,,0,-1,1768945206.1775513
1768945206185.3638,1405.128205128205,,0,-1,1768945206.1853638
1768945206193.1765,1408.058608058608,,0,-1,1768945206.1931765
1768945206200.9888,1407.3260073260071,,0,-1,1768945206.2009888
1768945206208.8013,1403.6630036630036,,0,-1,1768945206.2088013
1768945206216.6138,1406.5934065934066,,0,-1,1768945206.2166138
1768945206224.4265,1408.058608058608,,0,-1,1768945206.2244265
1768945206232.2388,1412.4542124542124,,0,-1,1768945206.2322388
1768945206240.0513,1415.3846153846152,,0,-1,1768945206.2400513
1768945206247.8638,1421.245421245421,,0,-1,1768945206.2478638
1768945206255.6765,1419.7802197802198,,0,-1,1768945206.2556765
1768945206263.4888,1417.5824175824175,,0,-1,1768945206.2634888
1768945206271.3013,1412.4542124542124,,0,-1,1768945206.2713013
1768945206279.1138,1404.3956043956043,,0,-1,1768945206.2791138
1768945206286.9265,1401.4652014652013,,0,-1,1768945206.2869265
1768945206294.7388,1394.8717948717947,,0,-1,1768945206.2947388
1768945206302.5513,1393.4065934065934,,0,-1,1768945206.3025513
1768945206310.3638,1389.0109890109889,,0,-1,1768945206.3103638
1768945206318.1765,1387.5457875457876,,0,-1,1768945206.3181765
1768945206325.9888,1387.5457875457876,,0,-1,1768945206.3259888
1768945206333.8013,1383.150183150183,,0,-1,1768945206.3338013
1768945206341.6138,1378.7545787545787,,0,-1,1768945206.3416138
1768945206349.4265,1369.9633699633698,,0,-1,1768945206.3494265
1768945206357.2388,1367.032967032967,,0,-1,1768945206.3572388
1768945206365.0513,1367.032967032967,,0,-1,1768945206.3650513
1768945206372.8638,1366.3003663003662,,0,-1,1768945206.3728638
1768945206380.6765,1367.032967032967,,0,-1,1768945206.3806765
1768945206388.4888,1370.6959706959706,,0,-1,1768945206.3884888
1768945206396.3013,1370.6959706959706,,0,-1,1768945206.3963013
1768945206404.1138,1369.9633699633698,,0,-1,1768945206.4041138
1768945206411.9265,1375.091575091575,,0,-1,1768945206.4119265
1768945206419.7388,1376.5567765567764,,0,-1,1768945206.4197388
1768945206427.5513,1375.8241758241757,,0,-1,1768945206.4275513
1768945206435.3638,1375.8241758241757,,0,-1,1768945206.4353638
1768945206443.1765,1372.161172161172,,0,-1,1768945206.4431765
1768945206450.9888,1368.4981684981683,,0,-1,1768945206.4509888
1768945206458.8013,1369.230769230769,,0,-1,1768945206.4588013
1768945206466.6138,1365.5677655677655,,0,-1,1768945206.4666138
1768945206474.4265,1357.5091575091574,,0,-1,1768945206.4744265
1768945206482.2388,1350.18315018315,,0,-1,1768945206.4822388
1768945206490.0513,1346.5201465201465,,0,-1,1768945206.4900513
1768945206497.8638,1336.263736263736,,0,-1,1768945206.4978638
1768945206505.6765,1332.6007326007325,,0,-1,1768945206.5056765
1768945206513.4888,1328.937728937729,,0,-1,1768945206.5134888
1768945206521.3013,1329.6703296703297,,0,-1,1768945206.5213013
1768945206529.1138,1329.6703296703297,,0,-1,1768945206.5291138
1768945206536.9265,1331.135531135531,,0,-1,1768945206.5369265
1768945206544.7388,1333.3333333333333,,0,-1,1768945206.5447388
1768945206552.5513,1331.8681318681315,,0,-1,1768945206.5525513
1768945206560.3638,1332.6007326007325,,0,-1,1768945206.5603638
1768945206568.1765,1330.4029304029302,,0,-1,1768945206.5681765
1768945206575.9888,1333.3333333333333,,0,-1,1768945206.5759888
1768945206583.8013,1336.263736263736,,0,-1,1768945206.5838013
1768945206591.6138,1339.92673992674,,0,-1,1768945206.5916138
1768945206599.4265,1351.6483516483515,,0,-1,1768945206.5994265
1768945206607.2388,1365.5677655677655,,0,-1,1768945206.6072388
1768945206615.0513,1376.5567765567764,,0,-1,1768945206.6150513
1768945206622.8638,1388.278388278388,,0,-1,1768945206.6228638
1768945206630.6765,1394.8717948717947,,0,-1,1768945206.6306765
1768945206638.4888,1398.5347985347985,,0,-1,1768945206.6384888
1768945206646.3013,1402.197802197802,,0,-1,1768945206.6463013
1768945206654.1138,1403.6630036630036,,0,-1,1768945206.6541138
1768945206661.9265,1402.197802197802,,0,-1,1768945206.6619265
1768945206669.7388,1403.6630036630036,,0,-1,1768945206.6697388
1768945206677.5513,1402.9304029304028,,0,-1,1768945206.6775513
1768945206685.3638,1408.7912087912086,,0,-1,1768945206.6853638
1768945206693.1765,1411.7216117216117,,0,-1,1768945206.6931765
1768945206700.9888,1413.1868131868132,,0,-1,1768945206.7009888
1768945206708.8013,1413.1868131868132,,0,-1,1768945206.7088013
1768945206716.6138,1416.8498168498168,,0,-1,1768945206.7166138
1768945206724.4265,1417.5824175824175,,0,-1,1768945206.7244265
1768945206732.2388,1424.9084249084249,,0,-1,1768945206.7322388
1768945206740.0513,1432.2344322344322,,0,-1,1768945206.7400513
1768945206747.8638,1438.095238095238,,0,-1,1768945206.7478638
1768945206755.6765,1447.6190476190477,,0,-1,1768945206.7556765
1768945206763.4888,1457.142857142857,,0,-1,1768945206.7634888
1768945206771.3013,1464.4688644688645,,0,-1,1768945206.7713013
1768945206779.1138,1472.5274725274724,,0,-1,1768945206.7791138
1768945206786.9265,1472.5274725274724,,0,-1,1768945206.7869265
1768945206794.7388,1471.062271062271,,0,-1,1768945206.7947388
1768945206802.5513,1471.062271062271,,0,-1,1768945206.8025513
1768945206810.3638,1468.8644688644688,,0,-1,1768945206.8103638
1768945206818.1765,1472.5274725274724,,0,-1,1768945206.8181765
1768945206825.9888,1471.7948717948716,,0,-1,1768945206.8259888
1768945206833.8013,1473.260073260073,,0,-1,1768945206.8338013
1768945206841.6138,1472.5274725274724,,0,-1,1768945206.8416138
1768945206849.4265,1471.7948717948716,,0,-1,1768945206.8494265
1768945206857.2388,1477.6556776556777,,0,-1,1768945206.8572388
1768945206865.0513,1480.5860805860805,,0,-1,1768945206.8650513
1768945206872.8638,1487.9120879120878,,0,-1,1768945206.8728638
1768945206880.6765,1485.7142857142856,,0,-1,1768945206.8806765
1768945206888.4888,1484.9816849816848,,0,-1,1768945206.8884888
1768945206896.3013,1475.4578754578754,,0,-1,1768945206.8963013
1768945206904.1138,1465.201465201465,,0,-1,1768945206.9041138
1768945206911.9265,1458.6080586080584,,0,-1,1768945206.9119265
1768945206919.7388,1449.084249084249,,0,-1,1768945206.9197388
1768945206927.5513,1444.688644688645,,0,-1,1768945206.9275513
1768945206935.3638,1446.153846153846,,0,-1,1768945206.9353638
1768945206943.1765,1446.153846153846,,0,-1,1768945206.9431765
1768945206950.9888,1447.6190476190477,,0,-1,1768945206.9509888
1768945206958.8013,1450.5494505494505,,0,-1,1768945206.9588013
1768945206966.6138,1450.5494505494505,,0,-1,1768945206.9666138
1768945206974.4265,1452.7472527472526,,0,-1,1768945206.9744265
1768945206982.2388,1450.5494505494505,,0,-1,1768945206.9822388
